‡T,‡U,‡V,aVR,aVL,aVF,V1,V2,V3,V4,V5,V6
-6,-5,1,6,-3,-2,5,-12,-13,-10,-15,-17,
-4,-6,-2,5,-1,-4,4,-12,-14,-9,-15,-17,
-4,-9,-5,7,1,-7,3,-13,-15,-9,-14,-16,
-4,-9,-5,7,1,-7,3,-12,-14,-9,-14,-15,
-3,-6,-3,5,0,-4,4,-12,-13,-10,-13,-14,
0,-3,-3,2,2,-3,5,-12,-13,-8,-12,-12,
0,-4,-4,2,2,-4,5,-12,-13,-8,-12,-12,
0,-6,-6,3,3,-6,5,-13,-13,-6,-14,-13,
-3,-8,-5,6,1,-6,6,-12,-12,-5,-12,-11,
-7,-10,-3,9,-2,-6,7,-12,-12,-5,-10,-10,
-6,-9,-3,8,-1,-6,5,-11,-13,-5,-10,-11,
-4,-9,-5,7,1,-7,4,-13,-15,-6,-12,-13,
-9,-12,-3,11,-3,-7,4,-14,-15,-7,-14,-15,
-16,-17,-1,17,-7,-9,4,-13,-13,-6,-14,-16,
-17,-17,0,17,-8,-8,4,-12,-12,-5,-13,-15,
-16,-17,-1,17,-7,-9,3,-12,-12,-5,-14,-17,
-12,-16,-4,14,-4,-10,2,-12,-13,-7,-18,-19,
-7,-14,-7,11,0,-10,2,-12,-13,-8,-18,-19,
-5,-9,-4,7,0,-6,3,-12,-13,-9,-17,-18,
-6,-9,-3,8,-1,-6,3,-12,-14,-9,-18,-19,
-7,-8,-1,8,-3,-4,4,-12,-13,-7,-16,-19,
-7,-9,-2,8,-2,-5,4,-12,-13,-7,-15,-17,
-5,-9,-4,7,0,-6,5,-11,-13,-8,-14,-15,
-2,-8,-6,5,2,-7,5,-10,-12,-7,-12,-15,
1,-9,-10,4,6,-9,5,-11,-12,-9,-14,-18,
-2,-9,-7,6,3,-8,5,-12,-13,-11,-16,-21,
-5,-12,-7,9,1,-9,5,-10,-13,-10,-14,-18,
-5,-12,-7,9,1,-9,3,-11,-13,-10,-14,-18,
-3,-11,-8,7,3,-9,3,-11,-14,-9,-14,-18,
-5,-14,-9,10,2,-11,4,-10,-13,-9,-13,-16,
-15,-17,-2,16,-6,-9,5,-10,-13,-9,-14,-16,
-19,-18,1,19,-10,-8,4,-11,-14,-10,-16,-18,
-15,-16,-1,16,-7,-8,4,-12,-15,-9,-17,-17,
-14,-14,0,14,-7,-7,6,-12,-14,-8,-16,-15,
-14,-12,2,13,-8,-5,5,-11,-14,-8,-16,-14,
-11,-11,0,11,-5,-5,5,-11,-14,-8,-15,-14,
-11,-13,-2,12,-4,-7,5,-11,-14,-9,-15,-15,
-13,-12,1,13,-7,-5,5,-11,-14,-9,-14,-16,
-16,-9,7,13,-11,-1,5,-9,-12,-8,-11,-13,
-17,-9,8,13,-12,0,4,-9,-11,-8,-10,-11,
-12,-8,4,10,-8,-2,5,-10,-11,-8,-11,-12,
-9,-9,0,9,-4,-4,6,-8,-10,-7,-10,-12,
-9,-9,0,9,-4,-4,6,-9,-12,-8,-11,-13,
-13,-11,2,12,-7,-4,4,-11,-14,-7,-13,-14,
-15,-13,2,14,-8,-5,4,-12,-13,-7,-13,-13,
-13,-13,0,13,-6,-6,5,-12,-13,-7,-12,-13,
-10,-14,-4,12,-3,-9,6,-12,-14,-8,-14,-14,
-8,-15,-7,12,0,-11,4,-13,-14,-10,-16,-16,
-9,-14,-5,12,-2,-9,4,-13,-15,-9,-17,-16,
-11,-13,-2,12,-4,-7,4,-12,-14,-8,-17,-15,
-10,-12,-2,11,-4,-7,3,-12,-14,-8,-17,-16,
-8,-13,-5,11,-1,-9,3,-13,-16,-8,-18,-17,
-10,-16,-6,13,-2,-11,3,-13,-15,-6,-18,-16,
-14,-16,-2,15,-6,-9,3,-13,-14,-6,-18,-16,
-17,-14,3,16,-10,-5,2,-14,-15,-8,-19,-18,
-14,-14,0,14,-7,-7,2,-14,-15,-9,-17,-17,
-14,-15,-1,15,-6,-8,4,-12,-13,-9,-16,-18,
-14,-17,-3,16,-5,-10,5,-11,-11,-7,-14,-17,
-19,-15,4,17,-11,-5,5,-10,-10,-4,-11,-14,
-17,-14,3,16,-10,-5,7,-9,-9,-4,-11,-13,
-13,-12,1,13,-7,-5,7,-9,-10,-4,-11,-14,
-9,-11,-2,10,-3,-6,9,-8,-9,-2,-11,-13,
-9,-15,-6,12,-1,-10,9,-8,-9,-2,-10,-11,
-12,-16,-4,14,-4,-10,8,-8,-10,-4,-11,-11,
-10,-11,-1,11,-4,-6,9,-6,-8,-3,-10,-10,
-8,-10,-2,9,-3,-6,11,-5,-6,-2,-9,-12,
-10,-12,-2,11,-4,-7,12,-5,-6,-1,-8,-11,
-9,-12,-3,11,-3,-7,11,-6,-6,-1,-9,-12,
-9,-11,-2,10,-3,-6,11,-6,-7,-1,-9,-12,
-12,-12,0,12,-6,-6,11,-5,-7,0,-8,-11,
-11,-12,-1,12,-5,-6,11,-4,-6,0,-8,-11,
-10,-12,-2,11,-4,-7,12,-3,-4,0,-7,-10,
-12,-14,-2,13,-5,-8,13,-1,-4,3,-6,-9,
-10,-12,-2,11,-4,-7,13,-3,-4,3,-5,-8,
-8,-12,-4,10,-2,-8,13,-2,-3,5,-4,-7,
-6,-11,-5,9,0,-8,15,-2,-2,5,-3,-7,
-6,-10,-4,8,-1,-7,15,-2,-2,5,-2,-7,
-6,-10,-4,8,-1,-7,17,0,0,6,0,-5,
-6,-13,-7,10,1,-10,17,1,1,6,0,-5,
-6,-11,-5,9,0,-8,14,0,0,5,-1,-5,
-2,-5,-3,4,1,-4,12,0,-1,5,0,-3,
2,-2,-4,0,3,-3,10,-1,-2,5,-2,-4,
1,-2,-3,1,2,-2,8,-1,-3,4,-3,-6,
-2,-4,-2,3,0,-3,6,-1,-3,4,-3,-5,
-4,-6,-2,5,-1,-4,5,-2,-3,6,-2,-3,
-4,-8,-4,6,0,-6,4,-5,-4,4,-3,-3,
-3,-10,-7,7,2,-8,1,-7,-6,2,-5,-5,
-5,-11,-6,8,1,-8,1,-9,-5,2,-4,-4,
-3,-10,-7,7,2,-8,0,-10,-7,1,-3,-4,
0,-7,-7,4,4,-7,-3,-14,-10,-1,-5,-6,
-2,-6,-4,4,1,-5,-5,-16,-11,-2,-5,-6,
-4,-6,-2,5,-1,-4,-4,-15,-10,0,-3,-5,
1,-4,-5,2,3,-4,-5,-14,-10,0,-4,-5,
5,-3,-8,-1,7,-5,-5,-13,-10,-1,-4,-6,
5,-3,-8,-1,7,-5,-3,-11,-9,0,-4,-6,
4,-2,-6,-1,5,-4,-2,-10,-8,0,-5,-5,
0,-5,-5,3,3,-5,0,-10,-8,1,-4,-4,
-2,-5,-3,4,1,-4,2,-7,-5,3,-3,-3,
-2,-5,-3,4,1,-4,4,-6,-3,5,-4,-3,
0,-5,-5,3,3,-5,5,-5,-2,5,-3,-2,
2,-7,-9,3,6,-8,5,-6,-3,4,-3,-4,
2,-10,-12,4,7,-11,5,-6,-5,3,-3,-5,
-1,-11,-10,6,5,-10,5,-5,-4,3,-2,-5,
-4,-11,-7,8,2,-9,6,-4,-4,3,-2,-4,
-3,-11,-8,7,3,-9,5,-5,-4,4,-2,-3,
0,-11,-11,6,6,-11,2,-7,-6,3,-4,-3,
0,-10,-10,5,5,-10,1,-8,-8,2,-3,-4,
-1,-10,-9,6,4,-9,0,-9,-9,0,-3,-4,
-3,-11,-8,7,3,-9,0,-10,-10,-1,-4,-6,
-4,-13,-9,9,3,-11,1,-10,-9,-1,-5,-7,
-6,-14,-8,10,1,-11,1,-11,-9,-2,-5,-7,
-9,-19,-10,14,1,-14,1,-11,-9,-3,-5,-7,
-10,-21,-11,16,1,-16,1,-13,-9,-4,-8,-10,
-11,-22,-11,17,0,-16,1,-15,-13,-7,-11,-12,
-14,-24,-10,19,-2,-17,2,-16,-15,-9,-12,-12,
-16,-24,-8,20,-4,-16,2,-16,-15,-8,-13,-11,
-18,-22,-4,20,-7,-13,3,-16,-15,-8,-13,-14,
-16,-19,-3,18,-6,-11,4,-14,-15,-7,-13,-14,
-11,-17,-6,14,-2,-11,4,-14,-17,-8,-13,-14,
-11,-17,-6,14,-2,-11,4,-15,-18,-9,-12,-14,
-15,-19,-4,17,-5,-11,4,-14,-17,-9,-10,-12,
-16,-22,-6,19,-5,-14,4,-14,-16,-8,-9,-12,
-14,-23,-9,19,-2,-16,3,-15,-16,-8,-11,-14,
-10,-20,-10,15,0,-15,2,-15,-17,-8,-12,-15,
-11,-20,-9,16,-1,-14,2,-14,-15,-6,-10,-13,
-15,-19,-4,17,-5,-11,3,-12,-14,-5,-9,-11,
-18,-21,-3,20,-7,-12,4,-12,-14,-6,-9,-12,
-18,-24,-6,21,-6,-15,3,-12,-16,-8,-10,-13,
-18,-25,-7,22,-5,-16,3,-13,-17,-9,-12,-14,
-17,-27,-10,22,-3,-18,3,-11,-15,-8,-11,-15,
-15,-26,-11,21,-2,-18,6,-5,-12,-8,-13,-16,
-14,-27,-13,21,0,-20,10,2,-10,-7,-16,-18,
-14,-30,-16,22,1,-23,15,12,-6,-6,-16,-20,
-11,-30,-19,21,4,-24,20,24,0,-4,-16,-23,
-8,-30,-22,19,7,-26,29,42,11,2,-11,-19,
-7,-31,-24,19,9,-27,39,60,27,13,-5,-15,
-1,-27,-26,14,13,-26,48,77,47,26,0,-12,
8,-22,-30,7,19,-26,55,90,68,43,8,-8,
15,-17,-32,1,24,-24,60,102,94,65,21,0,
20,-10,-30,-5,25,-20,62,111,118,89,38,10,
30,2,-28,-16,29,-13,57,112,140,114,57,26,
45,18,-27,-31,36,-4,39,102,156,138,79,43,
59,35,-24,-47,42,6,17,87,170,163,106,65,
72,56,-16,-64,44,20,-9,68,186,191,135,87,
89,81,-8,-85,49,37,-46,40,200,220,165,111,
111,109,-2,-110,57,54,-88,4,215,252,197,138,
130,134,4,-132,63,69,-132,-38,225,280,226,163,
145,151,6,-148,70,79,-175,-82,225,299,250,183,
157,165,8,-161,75,87,-215,-125,220,312,269,202,
164,178,14,-171,75,96,-252,-170,209,317,285,220,
168,185,17,-176,76,101,-290,-213,192,317,297,232,
169,194,25,-181,72,110,-322,-252,172,315,306,246,
167,200,33,-183,67,117,-343,-282,148,309,309,252,
162,196,34,-179,64,115,-353,-303,118,291,303,250,
153,186,33,-169,60,110,-350,-313,88,264,290,242,
136,176,40,-156,48,108,-330,-303,65,230,266,225,
113,154,41,-133,36,98,-296,-276,43,178,221,193,
89,125,36,-107,27,81,-260,-250,15,116,166,154,
65,91,26,-78,20,59,-224,-226,-14,60,113,116,
43,62,19,-52,12,41,-189,-201,-31,22,74,85,
28,43,15,-35,7,29,-155,-171,-38,3,46,63,
17,27,10,-22,4,19,-124,-141,-42,-7,28,42,
12,17,5,-14,4,11,-93,-112,-44,-10,16,28,
13,14,1,-13,6,8,-65,-83,-41,-9,10,17,
8,12,4,-10,2,8,-43,-60,-38,-6,8,13,
2,6,4,-4,-1,5,-25,-44,-34,-5,6,9,
-2,0,2,1,-2,1,-15,-33,-29,-5,2,3,
-3,-2,1,3,-2,0,-8,-25,-21,-5,0,0,
-1,-5,-4,3,2,-4,-6,-21,-13,-4,-3,-3,
-3,-7,-4,5,1,-5,-5,-18,-5,-4,-7,-6,
-9,-9,0,9,-4,-4,-3,-15,0,-4,-11,-8,
-12,-14,-2,13,-5,-8,0,-9,2,-3,-14,-11,
-14,-17,-3,16,-5,-10,5,-3,0,-3,-15,-12,
-15,-16,-1,16,-7,-8,10,2,-2,-3,-14,-12,
-12,-14,-2,13,-5,-8,14,4,-5,-3,-14,-12,
-9,-11,-2,10,-3,-6,15,5,-8,-4,-14,-13,
-11,-12,-1,12,-5,-6,15,4,-7,-5,-13,-12,
-13,-15,-2,14,-5,-8,16,3,-7,-6,-12,-12,
-18,-16,2,17,-10,-7,16,3,-7,-7,-13,-13,
-19,-15,4,17,-11,-5,15,3,-7,-8,-15,-15,
-19,-16,3,18,-11,-6,15,3,-7,-8,-14,-15,
-19,-19,0,19,-9,-9,17,6,-7,-7,-14,-14,
-21,-18,3,20,-12,-7,18,8,-7,-6,-14,-14,
-17,-15,2,16,-9,-6,19,8,-7,-7,-15,-15,
-9,-14,-5,12,-2,-9,19,8,-8,-8,-16,-17,
-8,-16,-8,12,0,-12,20,9,-8,-7,-17,-17,
-13,-18,-5,16,-4,-11,21,11,-7,-7,-18,-18,
-18,-18,0,18,-9,-9,22,10,-8,-8,-18,-19,
-20,-18,2,19,-11,-8,22,10,-8,-9,-18,-18,
-17,-18,-1,18,-8,-9,23,10,-10,-11,-19,-19,
-15,-17,-2,16,-6,-9,24,10,-9,-10,-19,-19,
-16,-17,-1,17,-7,-9,25,11,-9,-10,-18,-18,
-18,-18,0,18,-9,-9,25,10,-8,-10,-19,-20,
-22,-20,2,21,-12,-9,24,10,-9,-10,-21,-21,
-22,-20,2,21,-12,-9,24,10,-8,-11,-20,-19,
-20,-21,-1,21,-9,-11,25,12,-6,-9,-20,-18,
-19,-21,-2,20,-8,-11,26,13,-6,-10,-20,-19,
-16,-20,-4,18,-6,-12,24,13,-7,-11,-21,-19,
-14,-17,-3,16,-5,-10,24,12,-7,-12,-21,-21,
-18,-18,0,18,-9,-9,25,14,-6,-11,-21,-23,
-25,-19,6,22,-15,-6,27,15,-5,-10,-19,-22,
-25,-19,6,22,-15,-6,25,16,-5,-10,-19,-19,
-21,-19,2,20,-11,-8,24,15,-7,-13,-21,-20,
-14,-16,-2,15,-6,-9,23,15,-6,-15,-22,-22,
-11,-14,-3,13,-4,-8,24,16,-7,-14,-22,-22,
-11,-16,-5,14,-3,-10,25,17,-6,-13,-22,-23,
-12,-18,-6,15,-3,-12,26,18,-6,-11,-21,-22,
-15,-19,-4,17,-5,-11,27,18,-5,-11,-21,-21,
-17,-18,-1,18,-8,-9,26,18,-5,-10,-21,-21,
-12,-16,-4,14,-4,-10,26,18,-5,-10,-21,-21,
-10,-17,-7,14,-1,-12,26,19,-5,-10,-20,-20,
-15,-19,-4,17,-5,-11,27,20,-4,-9,-19,-18,
-20,-21,-1,21,-9,-11,28,21,-3,-8,-19,-17,
-24,-21,3,23,-13,-9,28,22,-2,-8,-18,-15,
-24,-21,3,23,-13,-9,28,21,-2,-8,-19,-16,
-26,-23,3,25,-14,-10,27,21,-3,-8,-21,-18,
-22,-21,1,22,-11,-10,27,21,-1,-8,-21,-18,
-19,-17,2,18,-10,-7,27,21,-2,-8,-20,-17,
-19,-15,4,17,-11,-5,26,21,-1,-8,-19,-16,
-18,-13,5,16,-11,-4,26,22,-1,-9,-19,-15,
-14,-12,2,13,-8,-5,27,22,0,-10,-20,-17,
-8,-10,-2,9,-3,-6,27,23,-1,-9,-20,-18,
-3,-11,-8,7,3,-9,27,23,0,-10,-20,-18,
-4,-13,-9,9,3,-11,27,24,0,-10,-19,-18,
-10,-12,-2,11,-4,-7,30,27,2,-9,-18,-18,
-10,-14,-4,12,-3,-9,30,27,2,-9,-21,-20,
-10,-12,-2,11,-4,-7,30,28,2,-9,-22,-21,
-11,-12,-1,12,-5,-6,31,29,3,-8,-21,-21,
-11,-11,0,11,-5,-5,32,29,3,-8,-20,-19,
-13,-13,0,13,-6,-6,32,30,3,-7,-19,-18,
-11,-15,-4,13,-3,-9,30,30,4,-7,-19,-19,
-9,-14,-5,12,-2,-9,30,31,4,-7,-20,-19,
-13,-15,-2,14,-5,-8,33,33,6,-7,-17,-17,
-15,-16,-1,16,-7,-8,33,33,4,-8,-18,-21,
-13,-17,-4,15,-4,-10,33,34,5,-10,-20,-25,
-13,-17,-4,15,-4,-10,34,36,7,-7,-17,-24,
-14,-20,-6,17,-4,-13,32,35,6,-7,-17,-22,
-13,-19,-6,16,-3,-12,32,35,6,-8,-20,-22,
-13,-20,-7,17,-3,-13,33,36,8,-6,-20,-21,
-13,-21,-8,17,-2,-14,34,37,9,-6,-21,-21,
-12,-20,-8,16,-2,-14,35,38,9,-6,-19,-20,
-10,-16,-6,13,-2,-11,34,40,11,-4,-17,-18,
-9,-14,-5,12,-2,-9,34,41,11,-4,-17,-17,
-12,-13,-1,13,-5,-7,35,42,11,-5,-17,-17,
-11,-8,3,10,-7,-2,35,44,11,-4,-17,-17,
-7,-7,0,7,-3,-3,38,46,15,-2,-15,-14,
-4,-9,-5,7,1,-7,40,48,19,1,-13,-12,
-4,-11,-7,8,2,-9,41,50,21,2,-14,-12,
-4,-9,-5,7,1,-7,40,51,20,1,-15,-13,
-4,-10,-6,7,1,-8,39,51,20,1,-16,-14,
-6,-10,-4,8,-1,-7,39,53,20,2,-15,-15,
-7,-12,-5,10,-1,-8,40,55,22,4,-15,-16,
-3,-13,-10,8,4,-11,39,55,21,4,-17,-17,
-5,-13,-8,9,2,-10,41,58,24,5,-16,-17,
-8,-15,-7,12,0,-11,42,60,26,6,-15,-16,
-9,-14,-5,12,-2,-9,43,60,27,4,-14,-16,
-6,-10,-4,8,-1,-7,45,62,29,6,-13,-16,
-8,-10,-2,9,-3,-6,48,66,32,9,-9,-13,
-8,-12,-4,10,-2,-8,48,68,32,7,-8,-14,
-4,-12,-8,8,2,-10,48,70,32,6,-9,-15,
-3,-13,-10,8,4,-11,48,72,34,7,-8,-14,
-3,-11,-8,7,3,-9,50,76,37,10,-7,-12,
-4,-14,-10,9,3,-12,49,79,38,11,-6,-12,
-3,-13,-10,8,4,-11,49,80,41,12,-6,-11,
0,-9,-9,5,5,-9,49,81,42,12,-7,-12,
2,-8,-10,3,6,-9,49,81,43,12,-5,-10,
2,-8,-10,3,6,-9,49,84,46,14,-5,-9,
3,-7,-10,2,7,-8,50,86,48,15,-5,-8,
3,-5,-8,1,6,-6,51,88,50,16,-5,-9,
1,-4,-5,2,3,-4,51,89,50,16,-6,-9,
2,-4,-6,1,4,-5,52,92,54,17,-5,-8,
5,-3,-8,-1,7,-5,54,96,58,21,-3,-7,
6,0,-6,-3,6,-3,55,98,61,22,-3,-7,
6,2,-4,-4,5,-1,54,100,62,23,-3,-6,
6,4,-2,-5,4,1,54,102,63,25,0,-3,
8,3,-5,-5,7,-1,52,103,64,27,1,-2,
10,1,-9,-5,10,-4,51,105,66,27,1,-5,
11,0,-11,-5,11,-5,52,106,66,27,1,-3,
13,3,-10,-8,12,-3,52,106,67,28,2,-2,
10,2,-8,-6,9,-3,52,106,69,31,4,-1,
6,2,-4,-4,5,-1,50,107,69,32,5,-2,
6,0,-6,-3,6,-3,49,108,72,34,5,-3,
8,0,-8,-4,8,-4,48,110,75,34,6,-1,
8,3,-5,-5,7,-1,47,110,78,34,7,0,
9,2,-7,-5,8,-2,47,112,81,36,8,1,
10,5,-5,-7,8,0,47,115,84,38,12,4,
10,5,-5,-7,8,0,48,116,85,41,13,7,
11,5,-6,-8,9,0,47,116,85,42,12,6,
15,7,-8,-11,12,0,46,116,85,42,10,5,
16,11,-5,-13,11,3,46,116,86,44,12,6,
17,12,-5,-14,11,4,46,117,89,45,16,8,
18,11,-7,-14,13,2,46,118,90,47,18,9,
17,8,-9,-12,13,0,44,116,88,46,16,7,
17,9,-8,-13,13,1,43,114,88,46,16,6,
13,10,-3,-11,8,4,43,114,89,48,17,6,
11,11,0,-11,6,6,43,114,91,49,20,8,
14,12,-2,-13,8,5,41,111,90,48,20,6,
13,11,-2,-12,8,5,38,108,89,48,20,6,
14,11,-3,-12,9,4,38,105,89,50,22,8,
14,11,-3,-12,9,4,37,103,89,52,24,9,
13,12,-1,-12,7,6,36,100,87,52,24,10,
13,14,1,-13,6,8,34,95,85,51,22,9,
15,12,-3,-13,9,5,33,91,83,50,22,10,
13,13,0,-13,7,7,33,87,81,50,23,14,
12,17,5,-14,4,11,31,82,76,48,23,14,
14,16,2,-15,6,9,29,76,72,48,21,12,
14,13,-1,-13,8,6,28,72,67,46,19,10,
8,12,4,-10,2,8,27,69,62,45,19,11,
7,13,6,-10,1,10,26,65,59,43,17,8,
7,11,4,-9,2,8,26,62,57,41,16,8,
7,11,4,-9,2,8,25,58,55,39,14,7,
6,10,4,-8,1,7,24,53,51,35,11,7,
5,7,2,-6,2,5,23,47,46,32,9,8,
4,6,2,-5,1,4,22,43,42,30,10,7,
6,9,3,-7,2,6,22,40,39,30,11,8,
6,11,5,-8,1,8,22,37,36,28,11,8,
6,8,2,-7,2,5,21,35,33,26,10,6,
6,4,-2,-5,4,1,21,30,30,23,8,4,
6,4,-2,-5,4,1,19,26,25,19,6,4,
6,6,0,-6,3,3,19,23,21,17,5,3,
6,6,0,-6,3,3,19,20,19,14,3,1,
6,5,-1,-5,4,2,18,16,14,11,1,0,
5,5,0,-5,3,3,17,13,12,9,0,-3,
0,4,4,-2,-2,4,15,11,10,7,-2,-5,
-6,0,6,3,-6,3,15,9,7,4,-5,-6,
-4,-1,3,3,-3,1,14,7,5,4,-6,-6,
-2,0,2,1,-2,1,14,5,3,4,-6,-6,
-4,1,5,2,-4,3,14,4,3,4,-6,-7,
-5,1,6,2,-5,4,14,3,4,3,-7,-8,
-4,0,4,2,-4,2,14,3,4,2,-7,-7,
-1,0,1,1,-1,1,15,3,4,2,-4,-5,
1,2,1,-1,0,2,13,1,1,1,-4,-5,
1,-1,-2,0,2,-1,12,-1,0,-1,-5,-5,
-2,-4,-2,3,0,-3,12,-1,-1,-2,-6,-7,
-7,-3,4,5,-5,1,14,-2,-2,-2,-5,-7,
-9,-6,3,8,-6,-1,13,-2,-3,-2,-5,-6,
-9,-6,3,8,-6,-1,12,-4,-4,-4,-6,-6,
-9,-6,3,8,-6,-1,12,-5,-4,-4,-9,-7,
-6,-6,0,6,-3,-3,12,-6,-5,-5,-11,-8,
-4,-5,-1,5,-1,-3,12,-5,-5,-4,-10,-7,
-8,-6,2,7,-5,-2,12,-5,-5,-3,-9,-7,
-8,-6,2,7,-5,-2,12,-6,-6,-5,-9,-9,
-8,-5,3,7,-5,-1,12,-6,-6,-6,-10,-10,
-8,-6,2,7,-5,-2,11,-7,-7,-6,-11,-12,
-5,-5,0,5,-2,-2,11,-8,-7,-7,-10,-13,
-1,-6,-5,4,2,-5,10,-8,-8,-7,-10,-13,
0,-9,-9,5,5,-9,10,-7,-8,-8,-9,-12,
-3,-8,-5,6,1,-6,11,-8,-8,-7,-8,-11,
-8,-8,0,8,-4,-4,11,-9,-8,-7,-8,-11,
-13,-12,1,13,-7,-5,12,-8,-8,-7,-9,-13,
-13,-11,2,12,-7,-4,11,-8,-8,-8,-8,-13,
-7,-7,0,7,-3,-3,11,-9,-9,-8,-7,-12,
-3,-7,-4,5,1,-5,11,-8,-8,-7,-6,-11,
-5,-6,-1,6,-2,-3,11,-7,-7,-6,-5,-10,
-2,-4,-2,3,0,-3,8,-7,-9,-5,-6,-10,
1,-2,-3,1,2,-2,8,-8,-10,-6,-8,-11,
0,0,0,0,0,0,9,-9,-9,-6,-6,-9,
-2,1,3,1,-2,2,9,-9,-9,-6,-6,-9,
-3,-1,2,2,-2,1,9,-10,-10,-6,-6,-12,
0,1,1,0,0,1,10,-9,-9,-6,-6,-11,
-2,1,3,1,-2,2,12,-7,-7,-4,-6,-9,
-4,1,5,2,-4,3,12,-8,-7,-4,-8,-9,
-6,0,6,3,-6,3,12,-6,-6,-4,-8,-9,
-7,-1,6,4,-6,3,12,-6,-6,-5,-9,-10,
-5,1,6,2,-5,4,12,-5,-5,-6,-8,-10,
-6,1,7,3,-6,4,14,-4,-4,-4,-7,-8,
-1,0,1,1,-1,1,13,-4,-4,-5,-7,-9,
4,0,-4,-2,4,-2,11,-6,-6,-5,-8,-10,
6,-3,-9,-1,8,-6,12,-6,-7,-5,-8,-9,
6,0,-6,-3,6,-3,12,-5,-7,-4,-7,-9,
4,2,-2,-3,3,0,13,-5,-7,-5,-7,-11,
1,1,0,-1,1,1,13,-4,-6,-5,-6,-12,
-1,-1,0,1,0,0,14,-4,-5,-5,-6,-10,
-2,-2,0,2,-1,-1,12,-5,-6,-7,-9,-11,
-2,-2,0,2,-1,-1,12,-5,-6,-7,-10,-12,
-1,-2,-1,2,0,-1,12,-5,-5,-8,-10,-14,
-2,-2,0,2,-1,-1,12,-6,-6,-8,-11,-14,
-4,-3,1,4,-2,-1,12,-5,-7,-7,-12,-15,
-5,-3,2,4,-3,0,14,-3,-6,-6,-9,-13,
-6,-3,3,5,-4,0,14,-2,-4,-4,-8,-12,
-4,-1,3,3,-3,1,14,-2,-4,-2,-9,-13,
-2,3,5,0,-3,4,15,-2,-4,-1,-8,-12,
-5,6,11,0,-8,9,15,-3,-3,0,-7,-12,
-9,4,13,3,-11,9,13,-4,-6,-3,-8,-11,
-9,-3,6,6,-7,2,13,-4,-6,-5,-8,-11,
-4,-7,-3,6,0,-5,14,-3,-5,-4,-7,-10,
-2,-5,-3,4,1,-4,15,-2,-5,-5,-6,-10,
-3,-2,1,3,-2,0,16,-1,-3,-4,-5,-7,
-5,-3,2,4,-3,0,16,0,-3,-3,-5,-6,
-4,-3,1,4,-2,-1,16,0,-3,-4,-6,-6,
-4,-3,1,4,-2,-1,16,0,-3,-4,-7,-8,
-4,-3,1,4,-2,-1,16,1,-3,-3,-6,-8,
-3,-2,1,3,-2,0,16,0,-3,-3,-7,-8,
-2,0,2,1,-2,1,15,0,-3,-2,-7,-9,
0,4,4,-2,-2,4,15,0,-3,-2,-10,-11,
0,6,6,-3,-3,6,14,0,-3,-3,-10,-12,
-3,2,5,1,-4,4,15,2,-3,-2,-8,-10,
-6,0,6,3,-6,3,16,2,-3,-2,-7,-10,
-5,0,5,3,-5,3,16,2,-3,-2,-8,-11,
-2,4,6,-1,-4,5,17,2,-3,-2,-8,-9,
0,5,5,-2,-2,5,16,1,-4,-4,-9,-9,
0,0,0,0,0,0,15,1,-4,-4,-10,-9,
-1,-4,-3,3,1,-3,15,2,-4,-4,-11,-9,
-3,-4,-1,4,-1,-2,17,3,-3,-3,-10,-9,
-7,-2,5,5,-6,2,18,3,-2,-2,-10,-10,
-6,1,7,3,-6,4,19,4,-2,-2,-9,-10,
-5,6,11,0,-8,9,20,4,-2,-3,-9,-10,
-6,6,12,0,-9,9,19,4,-2,-3,-9,-10,
-5,5,10,0,-7,8,18,4,-2,-2,-10,-9,
-2,4,6,-1,-4,5,17,3,-3,-2,-10,-9,
0,4,4,-2,-2,4,17,2,-4,-3,-10,-10,
-2,5,7,-1,-4,6,17,2,-3,-3,-10,-9,
-3,3,6,0,-4,5,18,3,-2,-1,-6,-6,
-3,3,6,0,-4,5,17,1,-3,0,-5,-6,
-1,5,6,-2,-3,6,16,0,-5,-1,-5,-6,
-2,2,4,0,-3,3,18,2,-3,-1,-4,-6,
-2,2,4,0,-3,3,18,3,-3,-2,-6,-8,
-1,6,7,-2,-4,7,17,3,-4,-1,-7,-7,
-1,5,6,-2,-3,6,17,3,-3,-1,-6,-6,
-1,5,6,-2,-3,6,18,3,-3,-2,-7,-5,
-4,3,7,1,-5,5,18,3,-4,-3,-9,-6,
-7,2,9,3,-8,6,18,3,-3,-2,-8,-7,
-5,4,9,1,-7,7,16,1,-3,-3,-9,-7,
-5,5,10,0,-7,8,15,0,-5,-4,-10,-7,
-6,3,9,2,-7,6,15,-1,-5,-4,-13,-10,
-6,0,6,3,-6,3,14,-2,-7,-3,-12,-11,
-4,0,4,2,-4,2,13,-2,-6,-3,-11,-10,
-5,1,6,2,-5,4,12,-3,-7,-4,-11,-10,
-7,6,13,1,-10,10,12,-3,-9,-4,-11,-11,
-3,7,10,-2,-6,9,13,-3,-9,-5,-10,-11,
1,6,5,-3,-2,6,11,-5,-9,-5,-11,-12,
0,5,5,-2,-2,5,11,-6,-9,-6,-13,-13,
-1,5,6,-2,-3,6,13,-5,-7,-5,-14,-11,
1,6,5,-3,-2,6,13,-4,-6,-4,-14,-10,
5,6,1,-5,2,4,11,-5,-7,-4,-13,-10,
3,7,4,-5,0,6,10,-6,-7,-4,-14,-10,
1,5,4,-3,-1,5,11,-6,-6,-3,-13,-10,
0,1,1,0,0,1,12,-6,-5,-3,-11,-8,
-2,1,3,1,-2,2,12,-5,-5,-4,-10,-8,
-3,3,6,0,-4,5,11,-5,-6,-4,-10,-9,
-6,0,6,3,-6,3,11,-6,-7,-4,-9,-7,
-5,-1,4,3,-4,2,10,-6,-7,-4,-10,-6,
1,4,3,-2,-1,4,9,-8,-10,-5,-10,-8,
1,3,2,-2,0,3,9,-7,-10,-5,-8,-9,
-2,0,2,1,-2,1,10,-7,-10,-4,-7,-9,
-4,-1,3,3,-3,1,10,-7,-10,-5,-8,-9,
-5,-1,4,3,-4,2,10,-9,-10,-7,-9,-11,
-8,-1,7,5,-7,3,10,-9,-11,-7,-10,-13,
-6,-1,5,4,-5,2,9,-9,-11,-8,-10,-13,
-4,0,4,2,-4,2,9,-9,-11,-8,-11,-12,
0,2,2,-1,-1,2,9,-8,-10,-7,-11,-12,
1,1,0,-1,1,1,9,-7,-10,-8,-12,-12,
-6,1,7,3,-6,4,10,-7,-10,-7,-11,-11,
-10,1,11,5,-10,6,9,-9,-10,-7,-12,-11,
-9,0,9,5,-9,5,8,-10,-13,-9,-13,-12,
-5,1,6,2,-5,4,9,-7,-11,-8,-13,-11,
-1,1,2,0,-1,2,10,-6,-11,-7,-13,-11,
1,4,3,-2,-1,4,10,-6,-10,-7,-12,-10,
-2,3,5,0,-3,4,10,-6,-11,-8,-12,-10,
-8,1,9,4,-8,5,9,-7,-11,-8,-11,-10,
-13,-4,9,9,-11,3,9,-7,-11,-7,-12,-10,
-9,-4,5,7,-7,1,8,-8,-12,-7,-12,-10,
-4,-1,3,3,-3,1,8,-8,-12,-8,-12,-11,
-1,-2,-1,2,0,-1,8,-9,-13,-9,-12,-13,
-2,-4,-2,3,0,-3,10,-7,-13,-8,-11,-12,
-1,0,1,1,-1,1,11,-6,-13,-7,-11,-11,
1,7,6,-4,-2,7,11,-6,-13,-6,-10,-10,
-1,7,8,-3,-4,8,11,-7,-12,-5,-9,-10,
-2,5,7,-1,-4,6,10,-7,-12,-5,-9,-9,
0,2,2,-1,-1,2,10,-7,-13,-6,-10,-10,
0,0,0,0,0,0,10,-8,-12,-5,-11,-10,
-2,-1,1,2,-1,0,9,-8,-12,-4,-11,-9,
-3,0,3,2,-3,2,8,-8,-12,-4,-11,-8,
-3,0,3,2,-3,2,8,-10,-13,-6,-11,-8,
-5,0,5,3,-5,3,8,-11,-13,-6,-12,-10,
-3,-1,2,2,-2,1,8,-11,-13,-5,-12,-9,
-4,-2,2,3,-3,0,8,-10,-12,-5,-12,-9,
-9,-3,6,6,-7,2,8,-9,-12,-5,-12,-9,
-10,-3,7,7,-8,2,8,-9,-13,-5,-12,-9,
-8,0,8,4,-8,4,8,-8,-12,-6,-11,-9,
-6,0,6,3,-6,3,10,-8,-12,-6,-11,-9,
-4,-1,3,3,-3,1,10,-9,-13,-7,-12,-11,
-3,-6,-3,5,0,-4,10,-9,-14,-7,-11,-11,
-1,-7,-6,4,3,-6,9,-10,-14,-8,-10,-9,
-5,-6,-1,6,-2,-3,9,-9,-13,-9,-10,-9,
-7,-8,-1,8,-3,-4,10,-8,-13,-9,-10,-8,
-6,-7,-1,7,-2,-4,9,-7,-14,-9,-10,-10,
-6,-9,-3,8,-1,-6,9,-8,-16,-11,-13,-13,
-7,-5,2,6,-4,-1,8,-8,-17,-11,-13,-13,
-5,-2,3,4,-4,1,7,-8,-15,-10,-11,-11,
-5,-1,4,3,-4,2,8,-8,-15,-9,-11,-10,
-7,-2,5,5,-6,2,8,-9,-15,-9,-11,-10,
-7,-3,4,5,-5,1,7,-10,-15,-10,-12,-10,
-3,-1,2,2,-2,1,7,-11,-17,-10,-12,-12,
-1,1,2,0,-1,2,7,-9,-14,-8,-11,-10,
-3,2,5,1,-4,4,8,-9,-13,-8,-12,-9,
-5,-4,1,5,-3,-1,8,-10,-13,-8,-12,-10,
-6,-6,0,6,-3,-3,8,-10,-12,-8,-12,-10,
-5,-6,-1,6,-2,-3,7,-11,-13,-8,-12,-11,
-5,-9,-4,7,0,-6,6,-13,-16,-11,-14,-14,
-5,-9,-4,7,0,-6,6,-12,-15,-12,-13,-13,
-1,-5,-4,3,2,-4,8,-9,-13,-10,-12,-12,
1,-3,-4,1,3,-3,6,-10,-13,-10,-12,-12,
1,-3,-4,1,3,-3,6,-11,-14,-11,-14,-14,
-1,-5,-4,3,2,-4,7,-11,-14,-12,-15,-14,
-5,-6,-1,6,-2,-3,8,-11,-14,-11,-14,-12,
-4,-3,1,4,-2,-1,9,-11,-13,-10,-13,-11,
-4,-2,2,3,-3,0,8,-13,-14,-10,-12,-11,
-6,-2,4,4,-5,1,9,-13,-13,-10,-11,-10,
-10,-4,6,7,-8,1,9,-13,-13,-11,-11,-10,
-8,-4,4,6,-6,0,8,-14,-15,-12,-13,-12,
0,0,0,0,0,0,8,-14,-14,-12,-13,-12,
1,1,0,-1,1,1,8,-13,-15,-12,-12,-12,
-7,0,7,4,-7,4,9,-12,-14,-11,-11,-11,
-10,-3,7,7,-8,2,8,-11,-14,-11,-11,-9,
-7,-5,2,6,-4,-1,7,-12,-15,-11,-12,-10,
-6,-5,1,6,-3,-2,7,-13,-16,-11,-12,-12,
-7,-5,2,6,-4,-1,7,-12,-15,-11,-12,-11,
-9,-5,4,7,-6,0,8,-12,-13,-10,-11,-10,
-6,-5,1,6,-3,-2,9,-11,-12,-10,-10,-9,
-5,-6,-1,6,-2,-3,8,-11,-13,-11,-11,-10,
-5,-7,-2,6,-1,-4,6,-12,-14,-12,-12,-11,
-9,-9,0,9,-4,-4,6,-11,-15,-10,-11,-10,
-12,-9,3,11,-7,-3,5,-11,-15,-9,-10,-10,
-10,-8,2,9,-6,-3,4,-13,-16,-10,-12,-12,
-6,-5,1,6,-3,-2,5,-12,-15,-9,-12,-12,
-1,-3,-2,2,1,-2,5,-13,-16,-10,-13,-14,
-1,-1,0,1,0,0,3,-15,-18,-12,-14,-15,
-3,-1,2,2,-2,1,3,-15,-17,-12,-13,-13,
-8,-1,7,5,-7,3,5,-14,-15,-11,-13,-12,
-7,-2,5,5,-6,2,2,-14,-16,-13,-15,-13,
-4,-1,3,3,-3,1,1,-15,-16,-13,-15,-14,
-2,-2,0,2,-1,-1,3,-13,-16,-12,-14,-14,
-2,-4,-2,3,0,-3,5,-11,-15,-11,-14,-14,
-2,-3,-1,3,0,-2,5,-11,-15,-11,-13,-13,
-4,-6,-2,5,-1,-4,5,-13,-16,-11,-15,-14,
-5,-9,-4,7,0,-6,8,-10,-14,-8,-15,-14,
-7,-8,-1,8,-3,-4,11,-9,-13,-8,-14,-12,
-2,-6,-4,4,1,-5,9,-10,-13,-8,-14,-9,
1,-6,-7,3,4,-6,9,-10,-13,-9,-15,-10,
-2,-7,-5,5,2,-6,9,-9,-11,-6,-14,-10,
-2,-8,-6,5,2,-7,8,-9,-11,-6,-14,-12,
-1,-4,-3,3,1,-3,8,-9,-12,-6,-14,-13,
-3,-2,1,3,-2,0,8,-9,-13,-7,-13,-12,
-8,-5,3,7,-5,-1,11,-6,-11,-6,-10,-11,
-12,-7,5,10,-8,-1,12,-6,-11,-6,-10,-12,
-10,-6,4,8,-7,-1,10,-8,-14,-8,-11,-13,
-5,-2,3,4,-4,1,9,-10,-14,-8,-10,-12,
1,3,2,-2,0,3,9,-9,-12,-7,-8,-11,
0,2,2,-1,-1,2,10,-8,-11,-5,-7,-10,
-8,1,9,4,-8,5,11,-7,-11,-5,-6,-8,
-12,3,15,5,-13,9,13,-5,-9,-5,-5,-6,
-10,5,15,3,-12,10,12,-5,-9,-5,-5,-6,
-9,5,14,2,-11,10,12,-6,-10,-5,-6,-7,
-8,4,12,2,-10,8,13,-5,-9,-5,-6,-7,
-8,2,10,3,-9,6,13,-4,-9,-5,-6,-7,
-8,0,8,4,-8,4,14,-4,-9,-5,-8,-9,
-4,0,4,2,-4,2,14,-3,-9,-5,-8,-10,
-1,4,5,-1,-3,5,16,-3,-8,-5,-8,-9,
0,6,6,-3,-3,6,16,-3,-6,-4,-8,-8,
0,9,9,-4,-4,9,16,-2,-5,-3,-7,-7,
-1,10,11,-4,-6,11,15,-2,-5,-4,-8,-8,
0,10,10,-5,-5,10,13,-2,-5,-4,-8,-8,
3,11,8,-7,-2,10,12,-2,-4,-4,-7,-7,
6,14,8,-10,-1,11,10,-4,-5,-5,-6,-9,
5,16,11,-10,-3,14,7,-6,-6,-6,-8,-12,
6,15,9,-10,-1,12,6,-7,-6,-6,-8,-12,
5,15,10,-10,-2,13,5,-7,-6,-5,-8,-9,
4,18,14,-11,-5,16,2,-9,-9,-6,-9,-9,
3,18,15,-10,-6,17,0,-10,-11,-9,-10,-11,
1,17,16,-9,-7,17,-2,-12,-12,-9,-9,-12,
0,15,15,-7,-7,15,-5,-14,-14,-11,-9,-11,
-2,12,14,-5,-8,13,-7,-17,-14,-11,-10,-10,
0,14,14,-7,-7,14,-8,-19,-15,-13,-10,-11,
4,14,10,-9,-3,12,-7,-18,-14,-12,-9,-10,
2,11,9,-6,-3,10,-6,-18,-12,-10,-7,-7,
2,12,10,-7,-4,11,-6,-18,-12,-10,-6,-6,
2,11,9,-6,-3,10,-7,-18,-14,-10,-7,-7,
2,8,6,-5,-2,7,-6,-17,-14,-9,-7,-9,
0,8,8,-4,-4,8,-2,-13,-12,-8,-5,-7,
2,11,9,-6,-3,10,0,-12,-12,-7,-4,-6,
5,15,10,-10,-2,13,1,-12,-12,-7,-6,-6,
7,15,8,-11,0,12,1,-11,-12,-7,-7,-6,
6,12,6,-9,0,9,3,-10,-8,-4,-5,-5,
3,9,6,-6,-1,8,3,-10,-8,-3,-5,-5,
4,9,5,-6,0,7,0,-12,-9,-5,-7,-7,
5,10,5,-7,0,8,0,-13,-11,-7,-8,-8,
5,11,6,-8,0,9,1,-14,-11,-8,-7,-8,
0,14,14,-7,-7,14,1,-12,-12,-8,-6,-8,
-1,12,13,-5,-7,13,1,-12,-13,-8,-5,-7,
0,9,9,-4,-4,9,1,-11,-14,-9,-8,-8,
-1,8,9,-3,-5,9,0,-11,-14,-9,-10,-11,
-5,7,12,-1,-8,10,-1,-13,-16,-9,-12,-13,
-2,7,9,-2,-5,8,-3,-15,-18,-11,-12,-13,
-5,6,11,0,-8,9,-2,-15,-18,-11,-13,-14,
-9,5,14,2,-11,10,-2,-15,-19,-13,-14,-15,
-11,6,17,3,-14,12,-2,-17,-20,-13,-14,-15,
-10,6,16,2,-13,11,-3,-18,-19,-14,-15,-16,
-7,2,9,3,-8,6,-3,-19,-20,-17,-16,-18,
-4,2,6,1,-5,4,-3,-19,-22,-19,-18,-20,
-1,3,4,-1,-2,4,-5,-20,-24,-21,-20,-21,
-4,2,6,1,-5,4,-5,-21,-25,-21,-21,-21,
-8,2,10,3,-9,6,-5,-22,-25,-21,-21,-22,
-5,2,7,2,-6,5,-6,-22,-25,-21,-22,-20,
-3,1,4,1,-3,3,-6,-22,-25,-23,-24,-20,
-3,2,5,1,-4,4,-6,-23,-25,-24,-25,-21,
-7,4,11,2,-9,8,-5,-22,-26,-23,-24,-21,
-10,5,15,3,-12,10,-4,-22,-27,-22,-24,-23,
-12,0,12,6,-12,6,-3,-20,-25,-22,-23,-22,
-13,-4,9,9,-11,3,-2,-20,-24,-21,-23,-19,
-13,-4,9,9,-11,3,-2,-19,-24,-21,-25,-18,
-11,-4,7,8,-9,2,-3,-19,-23,-22,-25,-21,
-11,-5,6,8,-8,1,-3,-18,-22,-23,-26,-23,
-11,-6,5,9,-8,0,-1,-14,-19,-21,-24,-23,
-11,-7,4,9,-7,-1,4,-6,-14,-19,-23,-23,
-8,-4,4,6,-6,0,9,3,-9,-16,-22,-23,
-6,-5,1,6,-3,-2,15,16,-2,-14,-21,-23,
-8,-8,0,8,-4,-4,23,34,8,-8,-16,-21,
-7,-9,-2,8,-2,-5,32,53,22,1,-12,-19,
-1,-9,-8,5,4,-8,40,70,39,14,-7,-16,
6,-8,-14,1,10,-11,48,85,62,33,4,-10,
15,-2,-17,-6,16,-9,54,94,85,52,16,-2,
21,6,-15,-13,18,-4,58,102,109,74,31,7,
26,17,-9,-21,18,4,59,107,136,101,52,21,
35,34,-1,-34,18,17,51,104,159,129,78,41,
49,54,5,-51,22,30,31,92,176,156,106,61,
66,71,5,-68,31,38,5,74,190,183,133,80,
88,94,6,-91,41,50,-31,49,201,212,161,102,
109,119,10,-114,50,65,-73,17,213,245,193,128,
123,145,22,-134,51,84,-115,-19,222,278,226,156,
135,165,30,-150,53,98,-156,-59,225,304,254,181,
145,177,32,-161,57,105,-196,-103,222,323,278,203,
148,189,41,-168,54,115,-234,-149,214,333,298,224,
151,200,49,-175,51,125,-273,-197,199,335,313,241,
150,211,61,-180,45,136,-307,-242,180,333,324,255,
144,219,75,-181,35,147,-335,-279,159,327,331,263,
140,216,76,-178,32,146,-348,-302,135,314,328,265,
139,210,71,-174,34,141,-352,-315,104,290,316,258,
131,198,67,-164,32,133,-341,-311,75,261,295,245,
114,180,66,-147,24,123,-315,-288,50,215,255,219,
95,155,60,-125,18,108,-283,-262,20,151,196,178,
71,128,57,-99,7,93,-249,-242,-13,85,137,138,
46,101,55,-73,-4,78,-212,-220,-36,34,89,103,
26,79,53,-52,-13,66,-174,-193,-43,5,58,75,
10,60,50,-35,-20,55,-138,-161,-45,-12,35,49,
4,42,38,-23,-17,40,-106,-133,-47,-23,16,27,
4,29,25,-16,-10,27,-80,-105,-47,-26,6,11,
6,22,16,-14,-5,19,-59,-78,-45,-23,2,1,
6,18,12,-12,-3,15,-43,-54,-42,-20,-1,-3,
1,16,15,-8,-7,16,-31,-36,-37,-17,-2,-4,
0,15,15,-7,-7,15,-22,-25,-31,-16,-5,-4,
-3,12,15,-4,-9,14,-15,-20,-24,-15,-8,-5,
-8,9,17,0,-12,13,-12,-20,-16,-13,-9,-6,
-10,6,16,2,-13,11,-7,-18,-8,-12,-10,-7,
-10,1,11,5,-10,6,-3,-17,-2,-12,-13,-10,
-12,-1,11,7,-11,5,1,-13,-1,-12,-14,-14,
-13,-1,12,7,-12,6,4,-7,-2,-10,-13,-14,
-10,0,10,5,-10,5,6,-3,-6,-10,-12,-14,
-11,-3,8,7,-9,3,5,-1,-11,-12,-15,-16,
-14,-7,7,11,-10,0,5,0,-16,-14,-17,-18,
-15,-7,8,11,-11,1,5,1,-17,-16,-18,-18,
-14,-6,8,10,-11,1,7,1,-16,-18,-19,-19,
-14,-7,7,11,-10,0,10,1,-13,-18,-18,-18,
-17,-4,13,11,-15,5,12,1,-11,-19,-18,-19,
-16,-2,14,9,-15,6,12,0,-11,-21,-23,-21,
-18,-6,12,12,-15,3,14,1,-11,-22,-25,-23,
-21,-12,9,17,-15,-1,14,1,-13,-24,-25,-24,
-22,-11,11,17,-16,0,14,3,-13,-23,-24,-24,
-21,-11,10,16,-15,0,14,4,-14,-22,-23,-23,
-22,-10,12,16,-17,1,15,5,-15,-23,-23,-23,
-25,-12,13,19,-19,1,15,5,-15,-24,-24,-25,
-23,-8,15,16,-19,4,15,5,-15,-24,-25,-27,
-17,-4,13,11,-15,5,15,5,-14,-24,-24,-25,
-12,-6,6,9,-9,0,16,5,-14,-23,-25,-25,
-14,-7,7,11,-10,0,16,5,-13,-23,-25,-27,
-17,-11,6,14,-11,-2,16,6,-12,-23,-25,-27,
-19,-13,6,16,-12,-3,16,5,-14,-23,-24,-27,
-17,-13,4,15,-10,-4,16,5,-14,-22,-24,-28,
-16,-8,8,12,-12,0,17,7,-13,-21,-23,-25,
-16,-6,10,11,-13,2,18,8,-12,-20,-22,-25,
-19,-5,14,12,-16,5,18,9,-12,-19,-22,-24,
-19,-6,13,13,-16,4,19,9,-12,-19,-22,-24,
-18,-9,9,14,-13,0,18,8,-12,-19,-24,-26,
-20,-11,9,16,-14,-1,19,8,-12,-20,-26,-27,
-21,-10,11,16,-16,1,19,9,-11,-19,-25,-27,
-18,-11,7,15,-12,-2,19,9,-11,-19,-25,-28,
-16,-11,5,14,-10,-3,19,10,-10,-19,-25,-28,
-17,-9,8,13,-12,0,20,11,-10,-17,-25,-26,
-15,-8,7,12,-11,0,20,10,-11,-19,-26,-26,
-15,-9,6,12,-10,-1,20,10,-12,-21,-26,-27,
-16,-9,7,13,-11,-1,20,12,-11,-19,-25,-25,
-18,-10,8,14,-13,-1,21,15,-9,-19,-24,-23,
-21,-13,8,17,-14,-2,21,15,-8,-18,-23,-22,
-24,-16,8,20,-16,-4,21,15,-8,-19,-23,-24,
-18,-14,4,16,-11,-5,20,13,-9,-22,-25,-27,
-15,-10,5,13,-10,-2,20,14,-9,-21,-23,-27,
-16,-10,6,13,-11,-2,23,17,-7,-19,-22,-26,
-19,-15,4,17,-11,-5,23,17,-7,-18,-22,-26,
-18,-16,2,17,-10,-7,23,16,-8,-20,-23,-28,
-18,-13,5,16,-11,-4,23,16,-8,-21,-24,-28,
-20,-12,8,16,-14,-2,24,18,-6,-19,-24,-27,
-17,-10,7,14,-12,-1,23,18,-5,-18,-23,-28,
-13,-8,5,11,-9,-1,23,18,-5,-18,-24,-27,
-12,-5,7,9,-9,1,23,18,-5,-18,-22,-24,
-13,-6,7,10,-10,1,22,19,-5,-19,-22,-25,
-17,-9,8,13,-12,0,23,20,-5,-18,-22,-25,
-19,-12,7,16,-13,-2,25,21,-2,-16,-20,-24,
-22,-12,10,17,-16,-1,25,22,-1,-15,-19,-23,
-22,-10,12,16,-17,1,26,23,-1,-14,-18,-22,
-19,-13,6,16,-12,-3,26,22,0,-16,-18,-22,
-20,-18,2,19,-11,-8,26,22,0,-17,-20,-26,
-20,-17,3,19,-11,-7,27,23,0,-15,-20,-27,
-16,-14,2,15,-9,-6,26,23,0,-15,-21,-28,
-15,-12,3,14,-9,-4,26,24,0,-15,-21,-28,
-14,-8,6,11,-10,-1,27,27,1,-14,-21,-28,
-13,-4,9,9,-11,3,27,28,1,-13,-21,-29,
-13,-1,12,7,-12,6,27,28,2,-13,-21,-30,
-15,-3,12,9,-13,5,27,28,1,-14,-22,-30,
-16,-1,15,9,-15,7,29,30,4,-12,-20,-29,
-14,-2,12,8,-13,5,30,33,6,-12,-20,-27,
-11,-4,7,8,-9,2,31,34,7,-11,-20,-28,
-11,-5,6,8,-8,1,31,34,7,-10,-20,-27,
-13,-6,7,10,-10,1,31,33,7,-10,-21,-26,
-15,-7,8,11,-11,1,31,34,8,-11,-20,-27,
-16,-7,9,12,-12,1,32,35,9,-10,-20,-26,
-17,-6,11,12,-14,3,33,37,12,-8,-19,-24,
-14,-6,8,10,-11,1,33,38,12,-8,-19,-24,
-14,-8,6,11,-10,-1,33,38,12,-8,-19,-24,
-11,-5,6,8,-8,1,34,40,12,-7,-18,-22,
-10,-4,6,7,-8,1,33,40,12,-7,-18,-22,
-15,-6,9,11,-12,2,33,43,12,-5,-18,-23,
-17,-7,10,12,-13,2,33,45,13,-6,-18,-25,
-15,-6,9,11,-12,2,31,44,13,-7,-19,-26,
-13,-8,5,11,-9,-1,31,45,13,-7,-19,-26,
-13,-7,6,10,-9,0,34,49,17,-6,-18,-25,
-13,-2,11,8,-12,5,37,52,19,-4,-17,-23,
-13,-3,10,8,-11,4,35,53,19,-3,-16,-24,
-13,-5,8,9,-10,2,36,54,20,-2,-15,-23,
-8,-1,7,5,-7,3,36,56,22,-1,-14,-23,
-6,3,9,2,-7,6,36,57,24,-1,-13,-20,
-8,3,11,3,-9,7,36,57,24,-2,-13,-19,
-8,0,8,4,-8,4,37,59,25,-1,-13,-19,
-10,-3,7,7,-8,2,39,62,27,0,-13,-20,
-13,-4,9,9,-11,3,41,66,29,3,-11,-19,
-14,-2,12,8,-13,5,41,68,31,3,-11,-19,
-13,-4,9,9,-11,3,41,69,32,3,-12,-20,
-13,-9,4,11,-8,-2,42,71,34,3,-11,-20,
-11,-9,2,10,-6,-3,43,74,36,5,-11,-20,
-6,-4,2,5,-4,-1,43,76,40,8,-8,-18,
-5,-2,3,4,-4,1,45,78,43,12,-7,-17,
-7,-5,2,6,-4,-1,45,80,45,14,-6,-19,
-11,-5,6,8,-8,1,45,83,47,15,-5,-18,
-11,-2,9,7,-10,4,46,85,50,17,-5,-18,
-4,5,9,0,-6,7,45,88,53,19,-3,-16,
3,9,6,-6,-1,8,42,87,54,19,-4,-16,
4,7,3,-5,1,5,43,89,57,20,-3,-15,
5,7,2,-6,2,5,45,93,60,22,-1,-12,
2,8,6,-5,-2,7,45,94,63,23,1,-10,
0,7,7,-3,-3,7,45,96,63,22,0,-10,
2,7,5,-4,-1,6,46,98,64,22,0,-9,
2,10,8,-6,-3,9,47,101,67,25,1,-7,
4,13,9,-8,-2,11,46,102,70,28,2,-5,
6,14,8,-10,-1,11,46,103,72,30,2,-6,
5,12,7,-8,-1,10,47,104,73,31,5,-5,
3,11,8,-7,-2,10,47,105,75,34,7,-3,
0,10,10,-5,-5,10,47,106,78,37,9,-2,
0,12,12,-6,-6,12,46,107,79,36,9,-3,
0,14,14,-7,-7,14,46,108,80,36,8,-5,
2,13,11,-7,-4,12,45,109,83,38,8,-4,
2,14,12,-8,-5,13,44,109,84,38,8,-4,
5,14,9,-9,-2,12,43,109,86,39,8,-4,
7,15,8,-11,0,12,41,108,86,38,6,-4,
4,12,8,-8,-2,10,39,108,86,38,7,-3,
6,12,6,-9,0,9,37,107,87,41,10,-2,
7,17,10,-12,-1,14,36,107,87,43,11,0,
7,19,12,-13,-2,16,35,107,90,44,13,1,
8,17,9,-12,0,13,35,105,91,44,14,1,
8,13,5,-10,2,9,34,104,90,44,16,1,
4,12,8,-8,-2,10,33,103,90,45,18,2,
3,16,13,-9,-5,15,33,102,91,47,20,2,
7,19,12,-13,-2,16,33,100,90,47,20,3,
10,23,13,-16,-1,18,33,97,90,47,20,3,
11,24,13,-17,-1,19,31,95,90,48,21,4,
13,25,12,-19,1,19,30,92,89,48,20,3,
13,22,9,-17,2,16,29,88,86,45,19,2,
12,22,10,-17,1,16,29,82,82,43,18,2,
10,21,11,-15,0,16,27,79,78,41,19,1,
6,20,14,-13,-4,17,24,74,73,41,18,1,
4,23,19,-13,-7,21,21,70,70,39,18,0,
4,22,18,-13,-7,20,21,65,67,39,17,0,
5,21,16,-13,-5,19,22,62,65,39,17,1,
3,21,18,-12,-7,20,22,60,62,38,17,2,
0,21,21,-10,-10,21,23,57,60,38,19,4,
1,21,20,-11,-9,21,21,53,57,36,17,4,
3,21,18,-12,-7,20,18,48,51,32,15,2,
2,16,14,-9,-6,15,17,43,46,31,14,-2,
1,13,12,-7,-5,13,16,39,41,30,14,-1,
1,13,12,-7,-5,13,16,33,37,28,13,1,
3,13,10,-8,-3,12,14,30,34,26,10,0,
0,13,13,-6,-6,13,13,26,30,22,7,-2,
-1,14,15,-6,-8,15,12,23,27,18,4,-2,
-4,12,16,-4,-10,14,12,21,24,15,5,-1,
-7,12,19,-2,-13,16,11,18,22,12,3,-2,
-10,11,21,0,-15,16,10,15,18,7,3,-5,
-10,11,21,0,-15,16,9,13,15,5,3,-6,
-10,10,20,0,-15,15,9,11,11,4,2,-8,
-7,10,17,-1,-12,14,9,9,8,4,1,-8,
-2,11,13,-4,-7,12,9,7,6,4,1,-9,
0,12,12,-6,-6,12,8,4,4,3,0,-8,
-2,8,10,-3,-6,9,8,3,3,0,-2,-9,
-9,7,16,1,-12,12,8,2,2,-1,-3,-9,
-12,9,21,2,-16,15,8,1,0,-2,-4,-10,
-7,10,17,-1,-12,14,7,0,-2,-2,-7,-12,
-5,10,15,-2,-10,13,4,-3,-5,-4,-9,-13,
-7,8,15,0,-11,12,4,-3,-6,-5,-10,-14,
-5,7,12,-1,-8,10,5,-3,-6,-5,-10,-13,
-3,7,10,-2,-6,9,5,-3,-6,-7,-11,-13,
-4,9,13,-2,-8,11,6,-5,-8,-9,-12,-15,
-9,5,14,2,-11,10,6,-6,-8,-10,-12,-15,
-11,0,11,6,-11,6,6,-6,-9,-12,-14,-18,
-10,0,10,5,-10,5,5,-7,-9,-14,-17,-20,
-11,-1,10,6,-10,5,5,-7,-10,-14,-18,-20,
-11,-1,10,6,-10,5,7,-6,-10,-12,-15,-17,
-7,6,13,1,-10,10,8,-6,-10,-12,-14,-16,
-6,11,17,-2,-11,14,8,-8,-12,-14,-15,-16,
-8,8,16,0,-12,12,7,-9,-13,-14,-14,-15,
-10,8,18,1,-14,13,7,-7,-12,-12,-11,-14,
-11,8,19,2,-15,14,7,-7,-11,-10,-11,-14,
-9,10,19,0,-14,15,5,-8,-12,-10,-11,-14,
-9,9,18,0,-13,14,3,-9,-14,-12,-14,-16,
-8,4,12,2,-10,8,3,-12,-16,-15,-15,-17,
-6,2,8,2,-7,5,3,-13,-15,-16,-14,-14,
-9,5,14,2,-11,10,4,-13,-15,-14,-13,-13,
-11,6,17,3,-14,12,5,-13,-15,-14,-15,-16,
-11,5,16,3,-13,11,4,-14,-17,-15,-17,-19,
-8,6,14,1,-11,10,5,-14,-16,-15,-16,-19,
-8,5,13,2,-10,9,6,-12,-15,-15,-14,-18,
-9,3,12,3,-10,8,5,-12,-15,-14,-13,-17,
-12,4,16,4,-14,10,5,-11,-14,-12,-12,-15,
-9,6,15,2,-12,11,7,-10,-12,-9,-11,-13,
-8,4,12,2,-10,8,8,-9,-11,-8,-11,-13,
-8,2,10,3,-9,6,8,-9,-11,-8,-11,-14,
-9,2,11,4,-10,7,8,-9,-13,-9,-12,-14,
-10,3,13,4,-11,8,8,-9,-13,-10,-13,-13,
-7,8,15,0,-11,12,7,-8,-13,-10,-13,-13,
-7,11,18,-2,-12,15,6,-9,-13,-11,-14,-14,
-7,8,15,0,-11,12,5,-9,-14,-12,-15,-15,
-10,5,15,3,-12,10,4,-9,-14,-12,-16,-16,
-11,5,16,3,-13,11,3,-11,-16,-14,-16,-17,
-9,6,15,2,-12,11,3,-10,-16,-14,-16,-17,
-9,7,16,1,-12,12,6,-9,-13,-11,-14,-15,
-6,8,14,-1,-10,11,7,-9,-12,-11,-13,-14,
-3,6,9,-1,-6,8,6,-10,-12,-12,-13,-14,
-3,6,9,-1,-6,8,5,-11,-13,-14,-14,-15,
-5,8,13,-1,-9,11,4,-11,-14,-15,-14,-16,
-12,8,20,2,-16,14,4,-9,-14,-13,-13,-15,
-15,6,21,5,-18,14,4,-9,-14,-13,-13,-18,
-12,5,17,4,-14,11,4,-9,-16,-14,-15,-21,
-8,8,16,0,-12,12,4,-9,-16,-14,-15,-17,
-9,8,17,1,-13,13,6,-10,-17,-13,-15,-16,
-9,8,17,1,-13,13,7,-9,-15,-13,-16,-16,
-9,9,18,0,-13,14,7,-9,-15,-13,-17,-16,
-7,8,15,0,-11,12,7,-9,-14,-12,-17,-16,
-7,5,12,1,-9,9,7,-8,-15,-12,-17,-17,
-7,3,10,2,-8,7,6,-8,-16,-12,-18,-17,
-10,4,14,3,-12,9,6,-7,-13,-11,-18,-17,
-13,4,17,5,-15,11,7,-6,-11,-10,-17,-17,
-12,5,17,4,-14,11,7,-5,-10,-9,-17,-18,
-9,4,13,3,-11,9,7,-5,-10,-9,-17,-18,
-4,5,9,0,-6,7,8,-5,-10,-9,-16,-16,
-4,6,10,-1,-7,8,9,-4,-11,-8,-15,-15,
-5,5,10,0,-7,8,9,-4,-11,-9,-15,-16,
-5,6,11,0,-8,9,9,-4,-11,-9,-14,-17,
-7,7,14,0,-10,11,9,-4,-11,-8,-12,-16,
-7,7,14,0,-10,11,9,-4,-10,-8,-10,-14,
-3,9,12,-3,-7,11,9,-3,-10,-10,-10,-13,
-1,11,12,-5,-6,12,9,-3,-10,-10,-10,-13,
-3,9,12,-3,-7,11,10,-2,-10,-10,-10,-13,
-7,9,16,-1,-11,13,11,-2,-8,-10,-10,-13,
-9,7,16,1,-12,12,11,-2,-8,-9,-10,-12,
-11,9,20,1,-15,15,10,-2,-8,-9,-11,-12,
-13,10,23,2,-18,17,9,-2,-9,-9,-11,-13,
-14,10,24,2,-19,17,9,-3,-10,-10,-13,-14,
-8,10,18,-1,-13,14,9,-1,-8,-10,-15,-16,
-4,10,14,-3,-9,12,10,0,-7,-9,-15,-17,
-1,12,13,-5,-7,13,9,-2,-7,-9,-16,-16,
1,12,11,-6,-5,12,7,-3,-10,-11,-16,-16,
-1,10,11,-4,-6,11,7,-2,-11,-9,-14,-15,
-5,10,15,-2,-10,13,9,0,-10,-6,-11,-13,
-4,13,17,-4,-10,15,10,0,-10,-6,-11,-12,
0,15,15,-7,-7,15,10,-1,-10,-7,-13,-14,
2,15,13,-8,-5,14,10,0,-9,-9,-13,-15,
0,13,13,-6,-6,13,13,1,-7,-7,-10,-12,
-3,11,14,-4,-8,13,13,1,-7,-8,-10,-11,
-5,11,16,-3,-10,14,12,0,-8,-8,-11,-11,
-6,12,18,-3,-12,15,12,0,-8,-8,-11,-11,
-3,9,12,-3,-7,11,12,0,-8,-6,-11,-12,
-3,6,9,-1,-6,8,12,0,-8,-6,-11,-12,
-1,6,7,-2,-4,7,12,0,-8,-5,-12,-12,
-2,6,8,-2,-5,7,11,-1,-8,-6,-13,-13,
-7,5,12,1,-9,9,10,0,-8,-7,-13,-16,
-8,4,12,2,-10,8,10,0,-8,-8,-15,-17,
-8,4,12,2,-10,8,10,0,-7,-6,-12,-15,
-5,5,10,0,-7,8,10,0,-7,-6,-12,-15,
-4,6,10,-1,-7,8,9,-1,-7,-7,-12,-15,
-8,4,12,2,-10,8,8,-2,-8,-8,-12,-15,
-10,3,13,4,-11,8,8,-1,-8,-8,-13,-15,
-7,7,14,0,-10,11,8,0,-8,-9,-12,-14,
-6,10,16,-2,-11,13,9,0,-6,-7,-10,-12,
-1,13,14,-6,-7,14,9,-1,-7,-7,-10,-10,
-2,15,17,-6,-9,16,8,-3,-9,-10,-9,-10,
-8,15,23,-3,-15,19,8,-3,-9,-9,-9,-10,
-9,9,18,0,-13,14,9,-3,-9,-8,-10,-10,
-6,7,13,0,-9,10,9,-2,-8,-8,-9,-9,
-5,8,13,-1,-9,11,7,-4,-8,-9,-12,-11,
-3,8,11,-2,-7,10,6,-5,-10,-10,-14,-13,
-2,11,13,-4,-7,12,6,-5,-10,-9,-13,-12,
-3,10,13,-3,-8,12,6,-4,-10,-8,-13,-12,
-5,10,15,-2,-10,13,6,-5,-10,-8,-12,-13,
-5,13,18,-4,-11,16,7,-5,-10,-9,-12,-13,
-2,14,16,-6,-9,15,6,-5,-10,-10,-15,-15,
-2,12,14,-5,-8,13,7,-4,-9,-10,-15,-15,
-5,9,14,-2,-9,12,8,-4,-9,-9,-15,-15,
-5,11,16,-3,-10,14,9,-4,-8,-9,-15,-13,
-4,12,16,-4,-10,14,9,-5,-10,-8,-14,-11,
-4,12,16,-4,-10,14,9,-5,-9,-8,-14,-12,
-6,9,15,-1,-10,12,9,-6,-10,-8,-13,-12,
-5,7,12,-1,-8,10,9,-6,-9,-8,-12,-11,
-2,10,12,-4,-7,11,8,-6,-9,-10,-14,-11,
-3,10,13,-3,-8,12,6,-8,-11,-12,-15,-12,
-4,8,12,-2,-8,10,6,-8,-11,-11,-14,-12,
-2,7,9,-2,-5,8,6,-9,-12,-12,-14,-12,
-2,8,10,-3,-6,9,6,-9,-12,-12,-14,-12,
-2,12,14,-5,-8,13,6,-8,-11,-12,-14,-12,
-2,15,17,-6,-9,16,6,-8,-11,-12,-14,-12,
-1,13,14,-6,-7,14,6,-8,-12,-11,-15,-13,
-1,12,13,-5,-7,13,6,-9,-12,-12,-15,-14,
-5,10,15,-2,-10,13,5,-10,-12,-11,-16,-15,
-8,5,13,2,-10,9,5,-9,-12,-11,-16,-15,
-10,6,16,2,-13,11,5,-9,-12,-11,-16,-14,
-9,7,16,1,-12,12,5,-9,-13,-10,-14,-13,
-6,10,16,-2,-11,13,3,-10,-13,-11,-14,-13,
-1,15,16,-7,-8,16,3,-10,-13,-11,-15,-12,
-1,16,17,-7,-9,17,3,-10,-15,-12,-15,-13,
-4,12,16,-4,-10,14,2,-11,-16,-13,-15,-13,
-3,9,12,-3,-7,11,2,-9,-14,-11,-14,-11,
0,12,12,-6,-6,12,2,-9,-13,-11,-13,-10,
0,15,15,-7,-7,15,2,-9,-13,-11,-13,-11,
0,12,12,-6,-6,12,0,-11,-15,-12,-14,-12,
-3,7,10,-2,-6,9,0,-13,-17,-13,-15,-13,
-5,4,9,1,-7,7,0,-14,-17,-13,-15,-13,
-7,6,13,1,-10,10,2,-12,-16,-12,-16,-15,
-5,12,17,-3,-11,15,2,-10,-13,-9,-15,-14,
-6,13,19,-3,-12,16,3,-10,-13,-9,-14,-14,
-8,13,21,-2,-14,17,3,-12,-14,-11,-16,-16,
-7,10,17,-1,-12,14,2,-13,-14,-11,-17,-17,
-7,8,15,0,-11,12,2,-13,-14,-12,-17,-17,
-7,10,17,-1,-12,14,2,-12,-15,-12,-15,-15,
-5,11,16,-3,-10,14,4,-11,-13,-12,-14,-13,
-2,10,12,-4,-7,11,3,-11,-13,-12,-13,-13,
0,13,13,-6,-6,13,3,-11,-14,-12,-12,-13,
0,14,14,-7,-7,14,3,-11,-15,-14,-13,-14,
1,12,11,-6,-5,12,3,-11,-14,-13,-12,-15,
0,7,7,-3,-3,7,3,-11,-15,-13,-13,-14,
-2,7,9,-2,-5,8,2,-13,-17,-14,-14,-14,
-2,10,12,-4,-7,11,2,-13,-16,-14,-14,-15,
-1,11,12,-5,-6,12,2,-12,-16,-14,-13,-16,
-1,7,8,-3,-4,8,1,-13,-15,-14,-13,-15,
-7,3,10,2,-8,7,1,-12,-15,-14,-14,-15,
-11,3,14,4,-12,9,2,-11,-14,-14,-13,-15,
-10,4,14,3,-12,9,2,-11,-15,-15,-15,-16,
-8,6,14,1,-11,10,1,-13,-14,-14,-13,-15,
-3,9,12,-3,-7,11,2,-11,-12,-13,-12,-13,
-3,10,13,-3,-8,12,3,-11,-12,-13,-11,-12,
-7,6,13,1,-10,10,4,-11,-13,-14,-13,-15,
-6,5,11,1,-8,8,4,-12,-14,-13,-13,-14,
-4,5,9,0,-6,7,4,-11,-13,-13,-12,-12,
-4,4,8,0,-6,6,5,-11,-12,-13,-12,-11,
-5,5,10,0,-7,8,5,-12,-12,-12,-12,-12,
-6,5,11,1,-8,8,3,-13,-14,-13,-13,-12,
-8,0,8,4,-8,4,3,-14,-15,-15,-15,-13,
-8,-2,6,5,-7,2,3,-14,-14,-14,-15,-14,
-5,1,6,2,-5,4,3,-14,-14,-14,-16,-13,
-5,2,7,2,-6,5,3,-14,-14,-14,-15,-14,
-4,1,5,2,-4,3,2,-15,-15,-15,-16,-15,
-4,1,5,2,-4,3,2,-14,-16,-16,-16,-17,
-8,0,8,4,-8,4,2,-13,-16,-16,-16,-16,
-6,-2,4,4,-5,1,2,-13,-16,-15,-16,-16,
-2,-1,1,2,-1,0,2,-14,-15,-16,-16,-16,
0,1,1,0,0,1,2,-13,-15,-14,-15,-15,
-2,1,3,1,-2,2,5,-11,-12,-13,-13,-11,
-4,2,6,1,-5,4,5,-9,-12,-11,-10,-8,
-4,2,6,1,-5,4,5,-11,-13,-10,-11,-8,
-5,2,7,2,-6,5,5,-12,-13,-10,-11,-11,
-3,3,6,0,-4,5,5,-12,-15,-10,-12,-13,
0,4,4,-2,-2,4,4,-12,-16,-10,-10,-13,
0,2,2,-1,-1,2,3,-13,-15,-10,-9,-13,
-2,2,4,0,-3,3,3,-12,-15,-10,-9,-13,
0,4,4,-2,-2,4,4,-12,-16,-12,-11,-13,
0,5,5,-2,-2,5,4,-12,-16,-13,-11,-11,
-1,0,1,1,-1,1,5,-10,-16,-12,-8,-9,
0,-3,-3,2,2,-3,3,-10,-17,-14,-9,-11,
-1,-3,-2,2,1,-2,3,-10,-16,-16,-11,-14,
-5,-4,1,5,-3,-1,4,-10,-14,-14,-11,-13,
-7,-6,1,7,-4,-2,4,-11,-15,-13,-12,-13,
-8,-9,-1,9,-3,-5,4,-13,-17,-14,-14,-13,
-7,-8,-1,8,-3,-4,4,-13,-17,-14,-13,-12,
-2,-5,-3,4,1,-4,4,-13,-17,-13,-13,-12,
-3,-6,-3,5,0,-4,5,-13,-17,-13,-14,-12,
-5,-7,-2,6,-1,-4,4,-13,-17,-13,-15,-12,
-2,-7,-5,5,2,-6,3,-12,-17,-12,-15,-13,
-3,-5,-2,4,0,-3,3,-12,-17,-12,-14,-13,
-6,-3,3,5,-4,0,3,-11,-17,-12,-14,-13,
-6,-2,4,4,-5,1,4,-10,-16,-10,-14,-12,
-3,-2,1,3,-2,0,5,-10,-13,-9,-12,-11,
-5,-1,4,3,-4,2,5,-9,-13,-9,-11,-10,
-7,-1,6,4,-6,3,5,-10,-14,-9,-10,-10,
-4,-1,3,3,-3,1,5,-10,-14,-10,-11,-12,
-2,-1,1,2,-1,0,5,-10,-14,-10,-11,-13,
-5,-4,1,5,-3,-1,5,-10,-15,-9,-11,-13,
-5,-3,2,4,-3,0,5,-10,-14,-9,-10,-14,
-4,-1,3,3,-3,1,5,-10,-15,-10,-8,-13,
-7,-4,3,6,-5,0,4,-12,-16,-11,-8,-14,
-5,-7,-2,6,-1,-4,0,-15,-21,-16,-12,-17,
-3,-10,-7,7,2,-8,0,-16,-22,-15,-13,-18,
-5,-10,-5,8,0,-7,0,-15,-20,-13,-11,-14,
-5,-5,0,5,-2,-2,1,-14,-17,-12,-9,-12,
-1,1,2,0,-1,2,2,-13,-17,-12,-9,-12,
1,2,1,-1,0,2,2,-13,-17,-13,-11,-13,
-2,-3,-1,3,0,-2,2,-12,-18,-15,-13,-14,
-3,-2,1,3,-2,0,3,-10,-16,-13,-11,-13,
-7,-1,6,4,-6,3,4,-10,-14,-11,-10,-13,
-8,-3,5,6,-6,1,4,-10,-14,-10,-11,-14,
-6,-2,4,4,-5,1,3,-12,-15,-11,-12,-13,
-1,0,1,1,-1,1,3,-11,-15,-11,-12,-13,
-1,-1,0,1,0,0,4,-12,-15,-12,-13,-14,
-3,-4,-1,4,-1,-2,4,-11,-15,-12,-13,-14,
-5,-5,0,5,-2,-2,3,-11,-15,-13,-13,-13,
-4,-5,-1,5,-1,-3,3,-13,-16,-13,-13,-13,
-3,-4,-1,4,-1,-2,4,-12,-15,-12,-14,-12,
-1,-1,0,1,0,0,6,-8,-12,-10,-12,-10,
-1,0,1,1,-1,1,7,-8,-11,-10,-11,-10,
-2,0,2,1,-2,1,8,-8,-11,-12,-11,-10,
-5,0,5,3,-5,3,6,-9,-12,-12,-11,-10,
-7,0,7,4,-7,4,6,-9,-12,-11,-10,-8,
-3,2,5,1,-4,4,8,-9,-9,-8,-8,-7,
0,4,4,-2,-2,4,10,-8,-9,-6,-7,-7,
0,6,6,-3,-3,6,9,-8,-10,-6,-7,-8,
0,9,9,-4,-4,9,10,-7,-9,-4,-5,-7,
-3,9,12,-3,-7,11,10,-7,-9,-3,-4,-7,
-8,5,13,2,-10,9,11,-6,-9,-3,-4,-7,
-5,7,12,-1,-8,10,10,-6,-9,-3,-5,-7,
0,9,9,-4,-4,9,9,-5,-9,-5,-4,-7,
2,8,6,-5,-2,7,11,-2,-6,-2,-2,-5,
1,4,3,-2,-1,4,12,-1,-6,-2,-2,-4,
-1,2,3,0,-2,3,12,-3,-7,-5,-4,-6,
1,3,2,-2,0,3,13,-2,-6,-6,-4,-6,
4,4,0,-4,2,2,12,-1,-6,-7,-4,-6,
2,4,2,-3,0,3,12,0,-5,-6,-4,-6,
1,5,4,-3,-1,5,12,0,-4,-4,-5,-7,
8,9,1,-8,4,5,11,0,-4,-1,-3,-6,
11,10,-1,-10,6,5,10,0,-3,-1,-2,-6,
5,9,4,-7,1,7,9,-1,-4,-1,-2,-5,
0,7,7,-3,-3,7,6,-3,-6,-4,-3,-6,
-1,7,8,-3,-4,8,3,-6,-8,-6,-6,-8,
-3,7,10,-2,-6,9,2,-6,-8,-6,-4,-7,
-4,7,11,-1,-7,9,1,-7,-9,-6,-3,-6,
0,8,8,-4,-4,8,-1,-10,-10,-7,-4,-7,
7,11,4,-9,2,8,-3,-12,-13,-8,-6,-7,
13,12,-1,-12,7,6,-5,-14,-14,-8,-5,-6,
13,10,-3,-11,8,4,-6,-14,-14,-8,-4,-5,
4,9,5,-6,0,7,-7,-15,-14,-8,-4,-6,
0,10,10,-5,-5,10,-6,-14,-14,-9,-4,-4,
5,12,7,-8,-1,10,-6,-12,-12,-9,-4,-3,
8,12,4,-10,2,8,-4,-10,-11,-7,-3,-3,
10,12,2,-11,4,7,-2,-8,-10,-7,-3,-3,
6,11,5,-8,1,8,0,-7,-9,-5,-3,-2,
4,9,5,-6,0,7,1,-4,-7,-4,-1,-1,
4,8,4,-6,0,6,4,-3,-5,-3,-1,-2,
3,5,2,-4,1,4,3,-3,-6,-4,-2,-6,
3,4,1,-3,1,3,1,-6,-8,-5,-3,-6,
3,4,1,-3,1,3,3,-5,-8,-5,-3,-5,
3,2,-1,-2,2,1,3,-5,-9,-5,-4,-5,
1,2,1,-1,0,2,4,-5,-7,-5,-3,-6,
1,3,2,-2,0,3,4,-6,-6,-5,-2,-5,
3,5,2,-4,1,4,2,-7,-8,-6,-3,-5,
3,2,-1,-2,2,1,0,-8,-9,-8,-3,-5,
2,1,-1,-1,2,0,0,-9,-10,-10,-3,-5,
1,3,2,-2,0,3,-1,-10,-12,-12,-4,-5,
1,3,2,-2,0,3,-1,-10,-11,-11,-4,-5,
1,4,3,-2,-1,4,0,-10,-11,-9,-4,-5,
1,3,2,-2,0,3,0,-12,-13,-10,-5,-7,
-1,-2,-1,2,0,-1,0,-13,-15,-11,-7,-10,
-4,-5,-1,5,-1,-3,0,-13,-14,-10,-7,-11,
-3,-5,-2,4,0,-3,1,-14,-15,-12,-8,-11,
-2,-7,-5,5,2,-6,0,-15,-17,-13,-8,-12,
-2,-9,-7,6,3,-8,0,-14,-17,-13,-8,-13,
-1,-8,-7,5,3,-7,0,-15,-18,-13,-8,-13,
-1,-9,-8,5,4,-8,-2,-18,-22,-14,-10,-15,
-2,-10,-8,6,3,-9,-4,-19,-24,-15,-10,-15,
-6,-8,-2,7,-2,-5,-3,-18,-22,-15,-11,-13,
-12,-9,3,11,-7,-3,-1,-17,-21,-13,-10,-13,
-9,-8,1,9,-5,-3,-1,-16,-20,-13,-9,-13,
-4,-6,-2,5,-1,-4,-2,-17,-20,-15,-12,-14,
-3,-6,-3,5,0,-4,-3,-17,-22,-16,-14,-16,
-4,-5,-1,5,-1,-3,-3,-17,-21,-16,-15,-18,
-6,-7,-1,7,-2,-4,-1,-16,-20,-15,-14,-17,
-7,-13,-6,10,0,-9,0,-13,-18,-15,-13,-17,
-8,-16,-8,12,0,-12,1,-12,-17,-17,-13,-19,
-7,-16,-9,12,1,-12,2,-10,-16,-17,-14,-20,
-4,-12,-8,8,2,-10,6,-3,-11,-15,-12,-20,
-3,-10,-7,7,2,-8,13,6,-6,-13,-11,-21,
-5,-11,-6,8,1,-8,18,18,-1,-11,-13,-23,
-6,-13,-7,10,1,-10,23,31,5,-8,-12,-24,
-2,-16,-14,9,6,-15,31,49,18,1,-7,-20,
5,-14,-19,5,12,-16,41,68,37,13,-1,-17,
13,-12,-25,0,19,-18,49,81,55,29,5,-11,
15,-6,-21,-4,18,-13,55,91,77,48,16,-4,
16,0,-16,-8,16,-8,60,102,102,72,33,5,
24,9,-15,-16,20,-3,61,107,127,98,50,16,
38,22,-16,-30,27,3,54,107,153,126,73,31,
56,39,-17,-47,37,11,36,99,173,152,97,49,
75,60,-15,-67,45,23,13,86,189,178,124,68,
91,80,-11,-85,51,35,-16,68,203,206,153,92,
106,103,-3,-104,55,50,-54,43,219,238,186,120,
120,128,8,-124,56,68,-97,9,232,274,219,148,
133,152,19,-142,57,86,-141,-32,238,304,251,174,
144,166,22,-155,61,94,-182,-74,236,323,275,193,
148,176,28,-162,60,102,-217,-116,231,340,298,212,
152,189,37,-170,58,113,-251,-161,222,350,317,230,
156,201,45,-178,56,123,-286,-206,208,354,332,245,
158,212,54,-185,52,133,-318,-247,190,354,343,260,
154,214,60,-184,47,137,-338,-275,168,348,346,269,
146,210,64,-178,41,137,-347,-295,139,327,338,267,
140,202,62,-171,39,132,-346,-301,110,302,322,258,
131,187,56,-159,38,122,-327,-287,87,265,294,240,
116,161,45,-138,36,103,-296,-263,61,208,244,207,
95,131,36,-113,30,84,-263,-241,27,138,182,162,
72,101,29,-86,22,65,-229,-223,-9,71,124,116,
56,77,21,-66,18,49,-190,-199,-30,28,83,81,
44,62,18,-53,13,40,-154,-169,-34,6,57,56,
34,50,16,-42,9,33,-118,-137,-36,-5,39,38,
24,39,15,-31,5,27,-87,-106,-37,-10,25,25,
15,30,15,-22,0,23,-61,-77,-35,-11,16,15,
8,22,14,-15,-3,18,-44,-54,-32,-11,9,8,
4,15,11,-9,-3,13,-31,-37,-30,-11,4,2,
2,7,5,-4,-1,6,-24,-27,-27,-11,2,-2,
-2,0,2,1,-2,1,-17,-23,-21,-10,2,-6,
-5,-7,-2,6,-1,-4,-12,-20,-13,-9,0,-9,
-5,-12,-7,9,1,-9,-7,-20,-5,-9,-1,-12,
-7,-13,-6,10,0,-9,-2,-16,0,-7,-2,-15,
-8,-12,-4,10,-2,-8,2,-9,4,-5,-5,-17,
-11,-12,-1,12,-5,-6,7,-2,3,-5,-8,-18,
-11,-11,0,11,-5,-5,10,4,0,-6,-10,-19,
-6,-7,-1,7,-2,-4,11,7,-4,-7,-11,-20,
-2,-1,1,2,-1,0,12,8,-6,-8,-10,-18,
-2,-1,1,2,-1,0,13,6,-7,-8,-9,-18,
-3,-6,-3,5,0,-4,12,4,-8,-9,-11,-21,
-6,-8,-2,7,-2,-5,13,4,-6,-11,-13,-24,
-3,-6,-3,5,0,-4,13,3,-6,-13,-13,-25,
0,-6,-6,3,3,-6,14,3,-8,-15,-16,-26,
-3,-9,-6,6,2,-7,18,5,-5,-15,-14,-25,
-8,-11,-3,10,-2,-7,22,8,-4,-15,-14,-24,
-8,-13,-5,11,-1,-9,21,8,-6,-16,-15,-24,
-5,-14,-9,10,2,-11,20,7,-8,-18,-15,-25,
-4,-14,-10,9,3,-12,20,8,-8,-17,-16,-26,
-6,-15,-9,11,2,-12,21,9,-8,-17,-16,-25,
-6,-14,-8,10,1,-11,22,8,-7,-18,-17,-25,
-8,-14,-6,11,-1,-10,21,8,-8,-17,-18,-26,
-14,-15,-1,15,-6,-8,22,10,-6,-16,-17,-27,
-15,-15,0,15,-7,-7,22,10,-5,-16,-17,-27,
-10,-14,-4,12,-3,-9,20,10,-7,-17,-19,-28,
-8,-13,-5,11,-1,-9,20,11,-6,-16,-19,-27,
-8,-13,-5,11,-1,-9,22,12,-5,-16,-18,-27,
-7,-14,-7,11,0,-10,22,12,-5,-18,-18,-27,
-9,-16,-7,13,-1,-11,21,11,-6,-19,-19,-28,
-8,-14,-6,11,-1,-10,22,11,-6,-17,-17,-28,
-5,-11,-6,8,1,-8,22,11,-6,-17,-17,-28,
-7,-13,-6,10,0,-9,22,11,-6,-16,-17,-27,
-8,-14,-6,11,-1,-10,22,11,-5,-16,-16,-26,
-9,-15,-6,12,-1,-10,23,12,-5,-17,-17,-26,
-14,-16,-2,15,-6,-9,23,12,-6,-18,-18,-26,
-17,-18,-1,18,-8,-9,23,12,-6,-18,-18,-26,
-14,-19,-5,17,-4,-12,23,12,-4,-16,-17,-25,
-12,-18,-6,15,-3,-12,24,13,-3,-15,-15,-22,
-13,-18,-5,16,-4,-11,25,14,-2,-14,-15,-22,
-12,-18,-6,15,-3,-12,26,14,-2,-15,-15,-22,
-9,-14,-5,12,-2,-9,26,15,-3,-16,-17,-25,
-9,-12,-3,11,-3,-7,25,15,-2,-16,-19,-28,
-11,-14,-3,13,-4,-8,26,15,-2,-15,-16,-24,
-9,-14,-5,12,-2,-9,25,15,-2,-15,-17,-23,
-7,-15,-8,11,1,-11,25,16,-2,-14,-17,-24,
-6,-14,-8,10,1,-11,25,17,-2,-14,-16,-25,
-8,-11,-3,10,-2,-7,25,17,-2,-15,-17,-24,
-8,-10,-2,9,-3,-6,24,16,-2,-15,-17,-25,
-8,-11,-3,10,-2,-7,24,16,-3,-16,-18,-26,
-8,-13,-5,11,-1,-9,24,17,-1,-15,-18,-25,
-7,-16,-9,12,1,-12,25,19,0,-15,-18,-25,
0,-15,-15,8,8,-15,24,18,-1,-15,-19,-25,
2,-11,-13,5,8,-12,24,19,-1,-14,-18,-24,
-5,-11,-6,8,1,-8,27,23,4,-12,-15,-22,
-14,-13,1,14,-7,-6,29,26,6,-12,-14,-20,
-14,-15,-1,15,-6,-8,28,26,5,-12,-15,-21,
-7,-12,-5,10,-1,-8,28,26,6,-11,-15,-22,
-6,-12,-6,9,0,-9,28,27,4,-10,-15,-20,
-5,-13,-8,9,2,-10,29,27,4,-9,-15,-20,
-3,-14,-11,9,4,-12,29,27,4,-10,-16,-21,
-4,-14,-10,9,3,-12,30,27,4,-11,-16,-22,
-6,-16,-10,11,2,-13,31,28,5,-11,-16,-21,
-5,-16,-11,11,3,-13,30,28,7,-11,-15,-20,
-3,-17,-14,10,6,-15,30,29,7,-9,-15,-21,
-3,-18,-15,11,6,-16,32,30,9,-7,-14,-19,
-2,-16,-14,9,6,-15,33,32,10,-7,-14,-19,
0,-13,-13,7,7,-13,32,31,9,-9,-15,-22,
-2,-13,-11,8,5,-12,31,31,8,-10,-16,-24,
-5,-15,-10,10,3,-12,33,33,10,-9,-16,-24,
-9,-15,-6,12,-1,-10,35,36,11,-8,-15,-23,
-10,-12,-2,11,-4,-7,36,38,14,-6,-14,-21,
-5,-9,-4,7,0,-6,37,38,15,-6,-13,-21,
-2,-12,-10,7,4,-11,36,38,16,-5,-14,-22,
-2,-13,-11,8,5,-12,35,38,15,-6,-14,-22,
-2,-12,-10,7,4,-11,35,38,15,-5,-14,-21,
-3,-14,-11,9,4,-12,35,41,17,-5,-13,-21,
-4,-17,-13,11,5,-15,35,41,18,-5,-12,-21,
-3,-16,-13,10,5,-14,34,41,17,-6,-13,-21,
-4,-16,-12,10,4,-14,34,41,17,-6,-14,-23,
-10,-18,-8,14,-1,-13,35,43,18,-5,-14,-22,
-7,-15,-8,11,1,-11,36,45,21,-3,-13,-21,
-3,-10,-7,7,2,-8,38,48,22,-1,-12,-20,
-2,-8,-6,5,2,-7,39,49,24,-1,-12,-19,
-5,-8,-3,7,-1,-5,39,50,24,-1,-12,-20,
-2,-8,-6,5,2,-7,39,50,24,-1,-12,-20,
1,-9,-10,4,6,-9,39,51,25,0,-12,-20,
0,-10,-10,5,5,-10,41,55,28,1,-10,-18,
0,-5,-5,3,3,-5,43,59,31,2,-7,-15,
4,-5,-9,1,7,-7,43,62,33,3,-6,-15,
6,-5,-11,0,9,-8,43,63,34,3,-8,-16,
4,-6,-10,1,7,-8,43,63,34,4,-7,-16,
0,-8,-8,4,4,-8,44,65,36,6,-7,-16,
2,-9,-11,4,7,-10,45,66,37,7,-6,-16,
4,-7,-11,2,8,-9,45,69,40,9,-6,-15,
3,-5,-8,1,6,-6,48,72,43,12,-5,-15,
1,-5,-6,2,4,-5,49,75,46,13,-5,-17,
-1,-7,-6,4,3,-6,50,79,48,15,-3,-16,
-4,-8,-4,6,0,-6,50,81,50,16,-2,-14,
-2,-5,-3,4,1,-4,51,83,51,18,-1,-14,
0,-2,-2,1,1,-2,50,84,52,17,-1,-13,
-4,-4,0,4,-2,-2,50,85,55,18,-1,-12,
-6,-6,0,6,-3,-3,52,89,57,18,1,-11,
-4,-4,0,4,-2,-2,51,90,59,19,2,-11,
-2,0,2,1,-2,1,51,91,60,19,1,-11,
-2,1,3,1,-2,2,52,93,63,21,1,-11,
0,2,2,-1,-1,2,53,96,65,23,2,-9,
1,5,4,-3,-1,5,54,98,68,25,3,-7,
3,5,2,-4,1,4,53,99,69,26,3,-6,
4,5,1,-4,2,3,52,101,71,28,4,-5,
6,8,2,-7,2,5,52,101,72,27,4,-5,
7,11,4,-9,2,8,52,104,74,27,4,-5,
7,13,6,-10,1,10,52,106,77,30,4,-6,
6,12,6,-9,0,9,53,107,81,34,7,-5,
5,10,5,-7,0,8,53,109,85,37,10,-4,
4,10,6,-7,-1,8,53,110,87,39,11,-3,
4,10,6,-7,-1,8,53,110,88,40,11,-5,
5,10,5,-7,0,8,51,110,88,39,9,-5,
5,8,3,-6,1,6,49,110,88,39,9,-5,
6,10,4,-8,1,7,49,110,89,41,9,-4,
8,14,6,-11,1,10,49,111,91,44,11,-2,
10,16,6,-13,2,11,49,112,93,47,12,-1,
13,16,3,-14,5,10,47,111,93,48,13,-1,
13,17,4,-15,5,11,45,109,93,48,13,-1,
15,18,3,-16,6,11,45,108,93,49,15,0,
17,20,3,-18,7,12,44,108,95,50,18,1,
17,22,5,-19,6,14,44,108,97,52,21,3,
17,25,8,-21,5,17,44,107,98,53,23,5,
19,23,4,-21,8,14,42,105,98,52,22,3,
16,21,5,-18,6,13,41,103,97,51,21,3,
12,18,6,-15,3,12,40,103,97,52,22,3,
12,16,4,-14,4,10,40,103,98,54,22,5,
14,19,5,-16,5,12,39,100,98,55,23,6,
16,20,4,-18,6,12,38,98,97,55,24,7,
14,19,5,-16,5,12,36,96,95,53,23,7,
12,20,8,-16,2,14,33,90,91,51,21,5,
14,21,7,-17,4,14,31,85,87,49,19,5,
15,20,5,-17,5,13,29,81,84,47,19,3,
16,22,6,-19,5,14,28,77,80,47,19,3,
13,23,10,-18,2,17,30,76,80,48,23,6,
11,23,12,-17,0,18,29,72,76,46,23,10,
11,24,13,-17,-1,19,27,65,70,42,21,7,
15,24,9,-19,3,17,27,59,66,42,20,6,
14,23,9,-18,3,16,27,56,61,40,18,5,
10,22,12,-16,-1,17,25,51,57,38,16,4,
8,20,12,-14,-2,16,23,48,54,36,15,2,
6,18,12,-12,-3,15,22,45,50,34,13,0,
5,18,13,-11,-4,16,22,41,47,31,12,-2,
5,18,13,-11,-4,16,20,36,42,28,11,-2,
5,16,11,-10,-3,14,19,30,37,24,10,-1,
5,15,10,-10,-2,13,17,25,34,21,8,-3,
2,15,13,-8,-5,14,17,22,31,20,8,-3,
1,16,15,-8,-7,16,17,21,29,19,7,-2,
3,19,16,-11,-6,18,15,19,27,17,4,-2,
5,18,13,-11,-4,16,14,15,23,13,2,-4,
3,14,11,-8,-4,13,13,13,21,11,0,-5,
2,12,10,-7,-4,11,13,11,20,11,1,-5,
2,12,10,-7,-4,11,13,11,19,10,0,-5,
-1,13,14,-6,-7,14,14,8,17,9,0,-6,
-1,16,17,-7,-9,17,13,6,15,8,0,-6,
3,15,12,-9,-4,14,11,2,10,6,-4,-9,
3,12,9,-7,-3,11,9,0,6,2,-7,-12,
0,12,12,-6,-6,12,9,-1,6,2,-6,-12,
-3,13,16,-5,-9,15,11,-1,6,2,-5,-11,
-2,12,14,-5,-8,13,11,-2,5,0,-5,-11,
-3,9,12,-3,-7,11,10,-3,4,-1,-7,-12,
-4,8,12,-2,-8,10,10,-3,3,-1,-7,-12,
-1,9,10,-4,-5,10,8,-5,1,-3,-8,-12,
1,9,8,-5,-3,9,7,-6,-1,-5,-9,-14,
1,9,8,-5,-3,9,7,-8,-2,-6,-9,-12,
0,7,7,-3,-3,7,8,-8,-2,-6,-10,-10,
-4,6,10,-1,-7,8,8,-8,-2,-6,-10,-10,
0,9,9,-4,-4,9,6,-11,-4,-8,-12,-13,
2,8,6,-5,-2,7,5,-13,-5,-8,-12,-13,
0,6,6,-3,-3,6,7,-12,-4,-5,-10,-11,
-1,4,5,-1,-3,5,7,-11,-4,-5,-9,-10,
-3,4,7,0,-5,6,7,-11,-5,-6,-10,-11,
-4,5,9,0,-6,7,7,-12,-6,-7,-11,-13,
-3,5,8,-1,-5,7,7,-11,-7,-8,-10,-13,
0,8,8,-4,-4,8,7,-11,-7,-7,-10,-14,
-1,6,7,-2,-4,7,7,-12,-8,-7,-12,-15,
-4,4,8,0,-6,6,7,-12,-8,-7,-13,-16,
-5,4,9,1,-7,7,6,-12,-7,-8,-12,-15,
-1,7,8,-3,-4,8,6,-12,-7,-9,-14,-15,
-2,7,9,-2,-5,8,6,-13,-7,-8,-16,-16,
-3,7,10,-2,-6,9,7,-11,-6,-7,-16,-16,
-2,8,10,-3,-6,9,7,-11,-6,-7,-16,-15,
-1,10,11,-4,-6,11,6,-12,-6,-8,-18,-17,
0,10,10,-5,-5,10,6,-13,-6,-8,-17,-18,
1,10,9,-5,-4,10,7,-10,-3,-7,-14,-15,
1,11,10,-6,-4,11,8,-9,-3,-7,-13,-15,
-1,7,8,-3,-4,8,8,-9,-3,-8,-13,-15,
-6,4,10,1,-8,7,9,-11,-4,-9,-14,-17,
-9,4,13,3,-11,9,9,-9,-3,-7,-12,-16,
-8,6,14,1,-11,10,9,-9,-2,-6,-10,-15,
-6,5,11,1,-8,8,10,-9,-3,-6,-10,-14,
-4,5,9,0,-6,7,9,-11,-4,-7,-11,-16,
-7,5,12,1,-9,9,8,-11,-4,-7,-11,-16,
-7,4,11,2,-9,8,7,-10,-6,-7,-12,-17,
-9,4,13,3,-11,9,7,-9,-5,-7,-11,-14,
-10,4,14,3,-12,9,7,-9,-5,-7,-10,-14,
-8,4,12,2,-10,8,8,-10,-4,-8,-12,-15,
-4,6,10,-1,-7,8,7,-11,-5,-9,-13,-17,
-1,7,8,-3,-4,8,7,-11,-4,-8,-14,-17,
-1,7,8,-3,-4,8,7,-10,-3,-8,-14,-18,
-1,8,9,-3,-5,9,8,-10,-2,-7,-14,-17,
-1,7,8,-3,-4,8,8,-10,-2,-7,-14,-17,
-2,6,8,-2,-5,7,9,-9,-2,-8,-15,-16,
-3,7,10,-2,-6,9,8,-8,-3,-8,-14,-16,
-4,10,14,-3,-9,12,9,-8,-3,-7,-14,-14,
-2,10,12,-4,-7,11,10,-8,-1,-7,-14,-13,
-4,7,11,-1,-7,9,11,-8,-1,-7,-14,-12,
-2,5,7,-1,-4,6,10,-9,-2,-8,-14,-13,
0,6,6,-3,-3,6,9,-9,-3,-9,-15,-14,
-2,7,9,-2,-5,8,10,-8,-2,-8,-15,-14,
-3,7,10,-2,-6,9,10,-8,-2,-8,-15,-15,
0,5,5,-2,-2,5,10,-9,-3,-9,-16,-16,
-2,4,6,-1,-4,5,10,-8,-3,-8,-16,-16,
-3,5,8,-1,-5,7,11,-8,-3,-8,-17,-17,
-2,5,7,-1,-4,6,11,-7,-3,-8,-17,-16,
0,7,7,-3,-3,7,11,-7,-1,-7,-17,-16,
-1,6,7,-2,-4,7,12,-6,-1,-7,-16,-16,
-2,9,11,-3,-6,10,12,-7,-3,-7,-17,-15,
-5,9,14,-2,-9,12,11,-6,-2,-6,-16,-14,
-5,8,13,-1,-9,11,10,-6,-1,-6,-16,-14,
0,10,10,-5,-5,10,10,-5,0,-5,-16,-14,
1,10,9,-5,-4,10,12,-5,0,-4,-15,-13,
-1,8,9,-3,-5,9,11,-5,0,-6,-16,-15,
-4,10,14,-3,-9,12,11,-6,1,-7,-17,-17,
-4,8,12,-2,-8,10,11,-6,0,-7,-17,-19,
-9,7,16,1,-12,12,11,-6,0,-7,-17,-18,
-12,7,19,3,-15,13,13,-3,1,-6,-14,-14,
-8,7,15,1,-11,11,14,-3,1,-6,-14,-14,
-2,10,12,-4,-7,11,13,-4,0,-6,-14,-14,
1,12,11,-6,-5,12,13,-4,-1,-5,-13,-15,
0,10,10,-5,-5,10,13,-4,0,-3,-12,-14,
-4,9,13,-2,-8,11,14,-4,1,-2,-12,-14,
-8,8,16,0,-12,12,14,-3,1,-3,-13,-13,
-7,7,14,0,-10,11,13,-4,1,-5,-16,-16,
-6,9,15,-1,-10,12,14,-5,2,-6,-16,-17,
-6,9,15,-1,-10,12,14,-4,3,-5,-16,-16,
-4,8,12,-2,-8,10,15,-3,4,-4,-15,-16,
-3,9,12,-3,-7,11,13,-3,2,-4,-15,-17,
-2,10,12,-4,-7,11,13,-3,2,-2,-16,-17,
-7,9,16,-1,-11,13,13,-2,4,-2,-16,-17,
-12,9,21,2,-16,15,15,-1,5,-2,-15,-17,
-11,6,17,3,-14,12,13,-2,3,-3,-16,-18,
-4,4,8,0,-6,6,11,-3,1,-5,-17,-18,
-2,5,7,-1,-4,6,11,-3,1,-5,-15,-17,
-6,5,11,1,-8,8,14,-1,3,-3,-13,-14,
-5,7,12,-1,-8,10,13,-2,2,-4,-15,-15,
-4,7,11,-1,-7,9,12,-5,2,-5,-15,-17,
-7,6,13,1,-10,10,12,-7,1,-5,-16,-16,
-10,3,13,4,-11,8,12,-6,1,-6,-15,-16,
-11,0,11,6,-11,6,13,-5,1,-6,-15,-17,
-7,1,8,3,-7,5,12,-5,0,-6,-16,-16,
-7,0,7,4,-7,4,12,-5,0,-7,-16,-18,
-7,0,7,4,-7,4,12,-5,0,-7,-15,-20,
-2,2,4,0,-3,3,10,-6,-1,-9,-16,-18,
1,0,-1,0,1,0,10,-7,0,-9,-16,-16,
-2,-1,1,2,-1,0,12,-6,1,-8,-15,-16,
-4,1,5,2,-4,3,11,-6,1,-8,-17,-17,
-2,3,5,0,-3,4,10,-7,0,-9,-18,-17,
-2,3,5,0,-3,4,8,-8,-1,-9,-18,-16,
-5,3,8,1,-6,6,9,-8,0,-8,-16,-13,
-8,1,9,4,-8,5,11,-8,0,-8,-17,-14,
-5,-1,4,3,-4,2,9,-9,-1,-9,-19,-16,
-2,1,3,1,-2,2,9,-10,0,-9,-19,-16,
-5,1,6,2,-5,4,9,-9,0,-8,-19,-16,
-6,1,7,3,-6,4,10,-9,-1,-7,-21,-20,
-5,0,5,3,-5,3,10,-9,-2,-8,-21,-21,
-8,-2,6,5,-7,2,10,-9,-2,-8,-21,-21,
-10,-3,7,7,-8,2,10,-9,-2,-7,-21,-19,
-10,-1,9,6,-9,4,9,-10,-3,-8,-21,-19,
-8,1,9,4,-8,5,9,-10,-3,-10,-22,-20,
-5,0,5,3,-5,3,8,-10,-2,-9,-22,-21,
-4,-1,3,3,-3,1,6,-12,-4,-10,-23,-22,
-6,-3,3,5,-4,0,6,-11,-4,-11,-21,-23,
-8,-2,6,5,-7,2,7,-11,-3,-10,-20,-22,
-11,-4,7,8,-9,2,5,-12,-4,-12,-22,-21,
-10,-7,3,9,-6,-2,5,-12,-4,-13,-22,-21,
-10,-9,1,10,-5,-4,5,-12,-3,-11,-21,-19,
-11,-6,5,9,-8,0,6,-14,-3,-11,-20,-20,
-11,-1,10,6,-10,5,6,-13,-2,-11,-20,-20,
-10,0,10,5,-10,5,6,-14,-3,-12,-19,-20,
-10,1,11,5,-10,6,5,-14,-4,-12,-19,-20,
-10,1,11,5,-10,6,5,-14,-5,-12,-19,-20,
-11,-1,10,6,-10,5,5,-14,-5,-12,-18,-20,
-8,-2,6,5,-7,2,5,-14,-5,-12,-19,-21,
-4,-1,3,3,-3,1,4,-15,-6,-13,-20,-22,
-3,0,3,2,-3,2,4,-15,-4,-11,-19,-20,
-3,0,3,2,-3,2,7,-13,-3,-8,-17,-18,
-2,1,3,1,-2,2,7,-13,-3,-9,-18,-19,
-3,-1,2,2,-2,1,6,-15,-4,-10,-20,-20,
-7,-2,5,5,-6,2,6,-15,-4,-11,-21,-21,
-8,-1,7,5,-7,3,7,-15,-4,-10,-20,-19,
-7,0,7,4,-7,4,6,-16,-5,-10,-20,-19,
-5,0,5,3,-5,3,5,-17,-6,-12,-22,-21,
-3,1,4,1,-3,3,5,-17,-7,-13,-24,-21,
-7,0,7,4,-7,4,5,-17,-7,-11,-23,-20,
-8,0,8,4,-8,4,5,-16,-6,-11,-23,-21,
-13,-3,10,8,-11,4,4,-17,-6,-11,-22,-20,
-15,-3,12,9,-13,5,4,-17,-6,-12,-23,-20,
-15,-3,12,9,-13,5,4,-17,-6,-12,-24,-22,
-13,-3,10,8,-11,4,4,-18,-4,-10,-24,-21,
-10,0,10,5,-10,5,5,-16,-3,-9,-21,-19,
-7,3,10,2,-8,7,4,-16,-4,-10,-22,-20,
-3,4,7,0,-5,6,4,-18,-4,-10,-23,-21,
-4,3,7,1,-5,5,5,-16,-4,-9,-22,-20,
-10,1,11,5,-10,6,8,-14,-2,-8,-21,-18,
-14,0,14,7,-14,7,8,-14,-1,-9,-22,-19,
-13,2,15,6,-14,9,8,-15,-2,-10,-22,-19,
-11,4,15,4,-13,10,6,-17,-4,-10,-24,-21,
-9,3,12,3,-10,8,5,-19,-6,-12,-25,-23,
-9,1,10,4,-9,6,5,-17,-6,-12,-24,-20,
-13,-1,12,7,-12,6,5,-15,-4,-12,-22,-17,
-14,-3,11,9,-12,4,4,-16,-4,-12,-23,-17,
-11,-2,9,7,-10,4,3,-17,-5,-14,-26,-20,
-10,-2,8,6,-9,3,1,-19,-6,-15,-29,-22,
-10,-7,3,9,-6,-2,1,-20,-8,-15,-30,-23,
-10,-7,3,9,-6,-2,1,-19,-7,-14,-28,-23,
-10,-5,5,8,-7,0,1,-19,-8,-14,-28,-22,
-9,-5,4,7,-6,0,0,-20,-10,-15,-29,-22,
-11,-6,5,9,-8,0,1,-20,-9,-16,-28,-22,
-10,-5,5,8,-7,0,1,-21,-9,-15,-27,-21,
-11,-1,10,6,-10,5,3,-18,-7,-13,-26,-20,
-12,0,12,6,-12,6,5,-17,-6,-13,-25,-19,
-9,1,10,4,-9,6,4,-18,-6,-14,-27,-21,
-10,0,10,5,-10,5,3,-18,-7,-14,-27,-20,
-9,-1,8,5,-8,4,4,-17,-5,-12,-26,-18,
-8,-2,6,5,-7,2,5,-17,-5,-11,-25,-17,
-8,-1,7,5,-7,3,5,-17,-5,-11,-24,-15,
-9,-1,8,5,-8,4,5,-17,-5,-11,-25,-16,
-12,0,12,6,-12,6,5,-17,-5,-11,-24,-16,
-15,-1,14,8,-14,7,5,-17,-4,-10,-23,-16,
-13,-4,9,9,-11,3,5,-17,-5,-11,-24,-18,
-13,-6,7,10,-10,1,5,-16,-5,-11,-23,-17,
-14,-7,7,11,-10,0,5,-16,-5,-10,-23,-17,
-17,-7,10,12,-13,2,5,-16,-6,-10,-24,-20,
-17,-7,10,12,-13,2,5,-17,-5,-10,-25,-21,
-14,-4,10,9,-12,3,5,-16,-4,-9,-24,-20,
-9,-2,7,6,-8,3,5,-16,-4,-9,-24,-20,
-6,0,6,3,-6,3,4,-17,-4,-10,-26,-21,
-8,-4,4,6,-6,0,3,-18,-5,-10,-27,-21,
-11,-6,5,9,-8,0,4,-18,-6,-9,-26,-21,
-11,-3,8,7,-9,3,5,-17,-5,-9,-26,-20,
-9,-4,5,7,-7,1,3,-18,-7,-11,-27,-21,
-6,-2,4,4,-5,1,3,-20,-7,-13,-27,-21,
-10,-2,8,6,-9,3,3,-18,-5,-12,-25,-21,
-20,-5,15,13,-17,5,4,-18,-4,-11,-24,-20,
-24,-6,18,15,-21,6,4,-18,-4,-10,-24,-20,
-22,-3,19,13,-20,8,3,-19,-5,-10,-24,-19,
-18,-5,13,12,-15,4,2,-19,-6,-10,-25,-20,
-16,-6,10,11,-13,2,2,-19,-6,-11,-26,-21,
-14,-4,10,9,-12,3,4,-16,-4,-9,-24,-18,
-12,-2,10,7,-11,4,4,-16,-4,-8,-23,-16,
-9,-1,8,5,-8,4,3,-16,-5,-9,-23,-16,
-9,-3,6,6,-7,2,2,-17,-5,-10,-24,-17,
-9,-3,6,6,-7,2,1,-19,-7,-11,-26,-19,
-9,-3,6,6,-7,2,2,-19,-6,-10,-25,-19,
-10,0,10,5,-10,5,2,-19,-7,-10,-26,-20,
-11,0,11,6,-11,6,2,-18,-6,-11,-26,-20,
-10,1,11,5,-10,6,3,-18,-6,-11,-25,-21,
-10,-2,8,6,-9,3,4,-17,-4,-11,-25,-20,
-11,-4,7,8,-9,2,4,-18,-4,-10,-26,-19,
-11,-5,6,8,-8,1,2,-19,-7,-11,-27,-19,
-11,-5,6,8,-8,1,2,-20,-8,-12,-27,-20,
-11,-3,8,7,-9,3,1,-19,-8,-11,-26,-21,
-8,-1,7,5,-7,3,1,-19,-8,-10,-24,-19,
-6,-1,5,4,-5,2,1,-18,-7,-10,-25,-16,
-7,-2,5,5,-6,2,1,-19,-7,-10,-26,-18,
-9,-2,7,6,-8,3,1,-19,-7,-11,-27,-18,
-9,0,9,5,-9,5,2,-19,-8,-13,-28,-20,
-7,3,10,2,-8,7,2,-18,-8,-12,-27,-21,
-7,4,11,2,-9,8,2,-17,-7,-12,-26,-21,
-9,0,9,5,-9,5,2,-17,-8,-13,-27,-21,
-11,0,11,6,-11,6,2,-18,-8,-12,-28,-23,
-13,-1,12,7,-12,6,2,-18,-7,-10,-28,-23,
-11,-2,9,7,-10,4,2,-18,-6,-10,-27,-22,
-11,-3,8,7,-9,3,2,-19,-6,-10,-27,-21,
-11,-3,8,7,-9,3,2,-18,-6,-10,-26,-20,
-11,-3,8,7,-9,3,4,-17,-6,-10,-25,-19,
-15,-6,9,11,-12,2,4,-17,-6,-10,-25,-19,
-17,-6,11,12,-14,3,3,-19,-8,-12,-25,-19,
-17,-1,16,9,-16,8,3,-19,-11,-12,-25,-19,
-12,3,15,5,-13,9,4,-19,-10,-11,-23,-18,
-11,1,12,5,-11,7,5,-18,-10,-11,-22,-17,
-12,-4,8,8,-10,2,5,-18,-11,-11,-23,-18,
-7,-2,5,5,-6,2,3,-19,-11,-11,-23,-18,
-6,-2,4,4,-5,1,3,-19,-12,-10,-24,-20,
-8,0,8,4,-8,4,3,-20,-12,-10,-23,-19,
-6,1,7,3,-6,4,2,-20,-13,-10,-23,-19,
-7,2,9,3,-8,6,3,-18,-10,-9,-22,-18,
-10,1,11,5,-10,6,4,-17,-10,-8,-21,-18,
-11,1,12,5,-11,7,4,-17,-12,-8,-21,-17,
-10,3,13,4,-11,8,4,-17,-12,-9,-23,-16,
-11,3,14,4,-12,9,6,-16,-14,-10,-24,-15,
-10,2,12,4,-11,7,6,-16,-14,-12,-24,-14,
-10,3,13,4,-11,8,6,-15,-15,-12,-25,-14,
-9,4,13,3,-11,9,6,-14,-13,-10,-22,-14,
-9,6,15,2,-12,11,9,-13,-11,-8,-20,-14,
-12,8,20,2,-16,14,9,-13,-11,-6,-19,-14,
-6,11,17,-2,-11,14,7,-14,-11,-6,-20,-15,
-1,14,15,-6,-8,15,7,-14,-11,-5,-20,-17,
0,14,14,-7,-7,14,8,-13,-10,-5,-20,-17,
0,14,14,-7,-7,14,9,-12,-9,-4,-19,-15,
0,14,14,-7,-7,14,9,-10,-8,-4,-17,-14,
0,12,12,-6,-6,12,10,-8,-7,-2,-17,-13,
1,10,9,-5,-4,10,10,-9,-8,-2,-18,-15,
-4,8,12,-2,-8,10,10,-9,-8,-3,-20,-16,
-9,7,16,1,-12,12,10,-9,-7,-3,-18,-15,
-7,7,14,0,-10,11,9,-9,-9,-4,-18,-16,
-3,7,10,-2,-6,9,8,-9,-8,-3,-18,-15,
-2,8,10,-3,-6,9,8,-9,-7,-3,-16,-12,
-5,9,14,-2,-9,12,8,-8,-6,-1,-15,-11,
-6,8,14,-1,-10,11,6,-8,-7,-2,-17,-12,
-4,8,12,-2,-8,10,4,-9,-7,-3,-16,-11,
-2,11,13,-4,-7,12,2,-12,-9,-3,-16,-11,
-1,16,17,-7,-9,17,-2,-15,-12,-4,-17,-13,
-1,19,20,-9,-10,20,-4,-17,-13,-3,-15,-12,
1,21,20,-11,-9,21,-3,-17,-11,-2,-13,-8,
1,20,19,-10,-9,20,-5,-19,-13,-5,-15,-9,
1,17,16,-9,-7,17,-7,-20,-15,-6,-16,-8,
2,17,15,-9,-6,16,-9,-20,-18,-8,-17,-7,
5,19,14,-12,-4,17,-11,-23,-20,-9,-17,-7,
7,18,11,-12,-2,15,-8,-21,-20,-8,-16,-9,
6,12,6,-9,0,9,-7,-21,-19,-8,-16,-11,
7,7,0,-7,4,4,-7,-21,-20,-8,-16,-11,
6,6,0,-6,3,3,-7,-20,-19,-7,-16,-10,
2,4,2,-3,0,3,-6,-19,-19,-6,-17,-10,
-2,4,6,-1,-4,5,-5,-16,-19,-6,-16,-10,
-3,5,8,-1,-5,7,-3,-14,-18,-6,-16,-9,
1,7,6,-4,-2,7,-2,-12,-18,-4,-15,-8,
5,10,5,-7,0,8,0,-10,-16,-2,-14,-7,
4,9,5,-6,0,7,0,-10,-15,-1,-13,-6,
0,6,6,-3,-3,6,0,-9,-15,-2,-15,-8,
-1,6,7,-2,-4,7,-1,-10,-15,-1,-15,-8,
0,7,7,-3,-3,7,-1,-10,-15,-1,-13,-8,
1,8,7,-4,-3,8,-2,-10,-15,-1,-13,-7,
-1,7,8,-3,-4,8,-2,-10,-15,-1,-13,-7,
-1,4,5,-1,-3,5,-1,-11,-16,-3,-14,-8,
1,5,4,-3,-1,5,-2,-14,-18,-6,-16,-10,
1,3,2,-2,0,3,-3,-16,-20,-9,-19,-12,
-3,0,3,2,-3,2,-4,-17,-20,-8,-19,-12,
-5,1,6,2,-5,4,-4,-17,-20,-8,-20,-13,
-7,-1,6,4,-6,3,-3,-17,-21,-8,-19,-12,
-10,-1,9,6,-9,4,-4,-17,-22,-9,-20,-13,
-7,2,9,3,-8,6,-5,-17,-23,-10,-20,-13,
-7,1,8,3,-7,5,-6,-19,-25,-11,-23,-16,
-10,-2,8,6,-9,3,-5,-18,-27,-12,-25,-17,
-12,-3,9,8,-10,3,-3,-17,-26,-12,-24,-17,
-11,-3,8,7,-9,3,-3,-17,-27,-14,-24,-16,
-6,-1,5,4,-5,2,-3,-17,-27,-15,-23,-16,
-4,0,4,2,-4,2,-1,-16,-25,-14,-23,-16,
-8,-2,6,5,-7,2,0,-16,-25,-15,-23,-16,
-13,-6,7,10,-10,1,-3,-18,-28,-16,-25,-18,
-13,-8,5,11,-9,-1,-3,-17,-28,-15,-24,-18,
-13,-8,5,11,-9,-1,-1,-15,-27,-14,-22,-15,
-12,-5,7,9,-9,1,-1,-16,-27,-14,-24,-14,
-9,-4,5,7,-7,1,-3,-18,-29,-16,-26,-16,
-9,-4,5,7,-7,1,-3,-17,-27,-15,-25,-17,
-12,-4,8,8,-10,2,-2,-15,-26,-14,-23,-17,
-12,-6,6,9,-9,0,-1,-15,-24,-13,-22,-18,
-8,-6,2,7,-5,-2,0,-13,-25,-13,-23,-20,
-8,-7,1,8,-4,-3,2,-8,-23,-12,-23,-21,
-9,-12,-3,11,-3,-7,5,-2,-20,-12,-25,-23,
-6,-15,-9,11,2,-12,11,9,-15,-12,-27,-25,
-7,-16,-9,12,1,-12,19,27,-6,-9,-26,-24,
-5,-14,-9,10,2,-11,29,46,6,-4,-24,-24,
0,-12,-12,6,6,-12,40,64,22,5,-19,-21,
4,-11,-15,4,10,-13,50,79,39,17,-13,-18,
8,-7,-15,0,12,-11,56,89,59,34,-3,-13,
14,1,-13,-7,14,-6,59,97,81,57,11,-5,
21,9,-12,-15,17,-1,59,104,105,83,28,6,
29,19,-10,-24,20,5,53,108,132,112,51,21,
41,34,-7,-37,24,14,37,104,155,139,75,38,
58,52,-6,-55,32,23,15,95,172,163,99,59,
76,72,-4,-74,40,34,-13,81,188,189,125,83,
95,95,0,-95,48,48,-48,59,205,220,155,110,
115,121,6,-118,55,64,-90,27,219,253,186,137,
129,140,11,-134,59,76,-133,-12,226,282,216,161,
143,156,13,-149,65,85,-176,-54,226,304,241,180,
152,168,16,-160,68,92,-216,-100,221,317,262,195,
156,180,24,-168,66,102,-257,-148,211,323,279,208,
158,188,30,-173,64,109,-294,-192,196,324,293,222,
159,198,39,-178,60,119,-325,-232,181,323,304,238,
161,206,45,-183,58,126,-345,-260,163,319,310,250,
158,206,48,-182,55,127,-353,-277,138,303,303,252,
148,196,48,-172,50,122,-350,-285,110,278,287,243,
131,181,50,-156,41,116,-332,-275,85,246,259,223,
114,161,47,-137,34,104,-301,-250,58,196,215,189,
92,135,43,-113,25,89,-267,-231,23,134,163,149,
66,107,41,-86,13,74,-232,-216,-15,72,113,112,
43,81,38,-62,3,60,-197,-198,-41,27,74,80,
30,59,29,-44,1,44,-163,-173,-50,2,47,55,
19,41,22,-30,-1,32,-131,-144,-53,-11,26,35,
11,30,19,-20,-4,25,-99,-114,-52,-16,11,22,
7,21,14,-14,-3,18,-71,-83,-49,-15,2,14,
3,13,10,-8,-3,12,-49,-55,-45,-12,-2,8,
0,6,6,-3,-3,6,-35,-36,-42,-11,-5,2,
0,2,2,-1,-1,2,-25,-26,-39,-11,-6,-3,
0,3,3,-1,-1,3,-19,-21,-32,-9,-6,-6,
-6,3,9,2,-7,6,-13,-18,-22,-5,-6,-7,
-7,3,10,2,-8,7,-9,-19,-14,-4,-7,-9,
-9,0,9,5,-9,5,-7,-17,-10,-4,-10,-12,
-11,-6,5,9,-8,0,-2,-10,-6,-3,-12,-13,
-9,-6,3,8,-6,-1,3,-1,-6,-3,-13,-14,
-9,-2,7,6,-8,3,8,6,-8,-5,-14,-14,
-9,0,9,5,-9,5,11,12,-10,-5,-14,-13,
-10,0,10,5,-10,5,13,13,-12,-6,-13,-13,
-9,0,9,5,-9,5,12,9,-16,-8,-15,-15,
-7,-3,4,5,-5,1,9,3,-19,-10,-20,-20,
-11,-2,9,7,-10,4,9,0,-20,-11,-21,-20,
-15,-8,7,12,-11,0,9,-1,-21,-12,-21,-20,
-16,-12,4,14,-10,-4,10,0,-22,-14,-21,-21,
-15,-13,2,14,-8,-5,12,4,-20,-15,-21,-20,
-14,-13,1,14,-7,-6,14,7,-19,-15,-22,-21,
-13,-13,0,13,-6,-6,16,9,-19,-15,-21,-22,
-14,-13,1,14,-7,-6,17,10,-20,-16,-22,-25,
-13,-10,3,12,-8,-3,16,7,-22,-17,-24,-27,
-13,-10,3,12,-8,-3,15,6,-22,-18,-25,-28,
-16,-11,5,14,-10,-3,16,6,-21,-17,-26,-27,
-21,-15,6,18,-13,-4,18,9,-19,-15,-24,-23,
-22,-15,7,19,-14,-4,20,11,-18,-14,-23,-20,
-20,-13,7,17,-13,-3,18,11,-19,-14,-24,-20,
-15,-10,5,13,-10,-2,18,11,-20,-16,-28,-24,
-10,-8,2,9,-6,-3,19,11,-19,-15,-27,-26,
-11,-10,1,11,-6,-4,19,11,-19,-15,-25,-25,
-18,-12,6,15,-12,-3,19,12,-18,-14,-23,-26,
-19,-13,6,16,-12,-3,21,13,-17,-14,-22,-26,
-16,-13,3,15,-9,-5,20,13,-17,-14,-22,-26,
-13,-10,3,12,-8,-3,20,12,-18,-15,-23,-26,
-13,-10,3,12,-8,-3,20,11,-18,-16,-24,-28,
-14,-10,4,12,-9,-3,21,11,-18,-16,-25,-29,
-15,-9,6,12,-10,-1,21,12,-18,-17,-26,-28,
-17,-11,6,14,-11,-2,21,13,-16,-15,-25,-28,
-18,-15,3,17,-10,-6,22,13,-16,-15,-25,-28,
-18,-16,2,17,-10,-7,20,13,-17,-15,-25,-28,
-18,-15,3,17,-10,-6,20,12,-17,-14,-24,-27,
-18,-11,7,15,-12,-2,20,12,-17,-14,-24,-29,
-15,-10,5,13,-10,-2,20,13,-15,-12,-23,-27,
-15,-11,4,13,-9,-3,22,15,-13,-11,-22,-26,
-18,-11,7,15,-12,-2,22,15,-13,-11,-22,-25,
-19,-9,10,14,-14,1,21,15,-13,-11,-22,-25,
-16,-10,6,13,-11,-2,21,15,-14,-12,-22,-26,
-14,-10,4,12,-9,-3,21,16,-14,-13,-22,-25,
-15,-11,4,13,-9,-3,22,16,-14,-12,-21,-23,
-14,-11,3,13,-8,-4,21,16,-15,-12,-21,-24,
-14,-9,5,12,-9,-2,21,16,-14,-12,-22,-25,
-15,-8,7,12,-11,0,21,17,-14,-12,-22,-24,
-14,-6,8,10,-11,1,21,18,-15,-13,-22,-25,
-12,-5,7,9,-9,1,22,20,-13,-13,-21,-25,
-12,-8,4,10,-8,-2,22,21,-13,-13,-20,-24,
-12,-10,2,11,-7,-4,22,20,-12,-12,-18,-24,
-12,-8,4,10,-8,-2,23,22,-10,-11,-17,-22,
-12,-6,6,9,-9,0,23,23,-9,-10,-15,-20,
-12,-7,5,10,-8,-1,23,24,-9,-10,-15,-21,
-13,-9,4,11,-8,-2,24,24,-9,-10,-17,-22,
-11,-6,5,9,-8,0,22,24,-10,-12,-17,-22,
-12,-5,7,9,-9,1,23,25,-8,-10,-18,-22,
-16,-6,10,11,-13,2,26,27,-7,-9,-17,-21,
-14,-6,8,10,-11,1,26,27,-6,-9,-18,-21,
-12,-6,6,9,-9,0,28,26,-6,-9,-19,-23,
-13,-9,4,11,-8,-2,28,27,-4,-8,-19,-24,
-16,-13,3,15,-9,-5,28,29,-3,-8,-19,-23,
-21,-13,8,17,-14,-2,30,32,-2,-7,-18,-23,
-18,-12,6,15,-12,-3,29,32,-4,-8,-18,-24,
-16,-14,2,15,-9,-6,27,32,-4,-8,-19,-24,
-15,-11,4,13,-9,-3,27,32,-4,-8,-18,-25,
-16,-9,7,13,-11,-1,29,34,-1,-7,-16,-24,
-15,-11,4,13,-9,-3,29,35,0,-7,-16,-24,
-11,-9,2,10,-6,-3,29,35,0,-8,-18,-26,
-9,-7,2,8,-5,-2,29,37,0,-7,-18,-27,
-9,-5,4,7,-6,0,30,38,1,-6,-17,-22,
-11,-5,6,8,-8,1,31,38,1,-5,-16,-22,
-13,-7,6,10,-9,0,30,38,0,-6,-18,-24,
-11,-10,1,11,-6,-4,32,40,2,-5,-17,-25,
-11,-12,-1,12,-5,-6,32,42,3,-5,-16,-26,
-11,-12,-1,12,-5,-6,33,44,4,-5,-15,-24,
-12,-10,2,11,-7,-4,34,45,5,-4,-14,-23,
-12,-9,3,11,-7,-3,35,47,7,-2,-13,-23,
-11,-11,0,11,-5,-5,36,48,8,-2,-12,-23,
-10,-11,-1,11,-4,-6,35,49,9,-2,-12,-23,
-9,-11,-2,10,-3,-6,35,49,9,-1,-11,-21,
-9,-11,-2,10,-3,-6,35,49,9,-1,-12,-22,
-11,-10,1,11,-6,-4,36,52,11,0,-12,-23,
-12,-6,6,9,-9,0,37,54,13,1,-11,-21,
-12,-5,7,9,-9,1,37,55,14,1,-11,-21,
-12,-7,5,10,-8,-1,37,55,15,1,-11,-21,
-9,-8,1,9,-5,-3,37,56,16,1,-12,-20,
-7,-7,0,7,-3,-3,37,59,18,2,-10,-18,
-5,-5,0,5,-2,-2,39,61,20,4,-9,-17,
-5,-5,0,5,-2,-2,39,63,20,4,-10,-18,
-5,-7,-2,6,-1,-4,39,63,20,3,-11,-20,
-6,-5,1,6,-3,-2,39,66,22,4,-10,-19,
-4,-1,3,3,-3,1,40,70,25,7,-9,-17,
1,1,0,-1,1,1,41,72,27,7,-10,-18,
4,3,-1,-3,3,1,41,74,29,7,-11,-19,
2,3,1,-2,1,2,41,76,30,9,-7,-16,
2,2,0,-2,1,1,42,78,33,11,-4,-16,
0,2,2,-1,-1,2,43,82,36,12,-2,-16,
-2,2,4,0,-3,3,44,83,37,14,-2,-17,
-3,2,5,1,-4,4,44,86,39,15,-5,-20,
-7,0,7,4,-7,4,45,89,42,18,-2,-18,
-6,-1,5,4,-5,2,46,93,44,19,-1,-16,
0,3,3,-1,-1,3,46,96,47,19,0,-15,
3,8,5,-5,-1,7,47,98,49,21,1,-15,
6,8,2,-7,2,5,48,100,51,22,1,-16,
3,11,8,-7,-2,10,47,100,51,23,1,-17,
0,11,11,-5,-5,11,48,102,54,24,3,-15,
1,6,5,-3,-2,6,47,104,57,25,4,-14,
5,5,0,-5,3,3,47,104,58,26,4,-13,
7,9,2,-8,3,6,47,107,61,28,5,-13,
7,10,3,-8,2,7,47,108,61,29,6,-13,
7,10,3,-8,2,7,47,108,63,31,7,-13,
3,9,6,-6,-1,8,47,109,64,33,7,-13,
-2,7,9,-2,-5,8,48,112,66,34,8,-13,
-3,5,8,-1,-5,7,46,112,67,34,8,-12,
2,6,4,-4,-1,5,44,112,67,34,8,-13,
6,6,0,-6,3,3,44,112,70,36,9,-11,
6,9,3,-7,2,6,45,114,73,38,11,-9,
3,11,8,-7,-2,10,46,114,75,40,13,-7,
3,13,10,-8,-3,12,45,115,77,41,14,-7,
9,13,4,-11,3,9,42,113,77,41,13,-8,
12,14,2,-13,5,8,40,112,77,41,14,-6,
16,17,1,-16,8,9,40,112,78,43,15,-5,
18,20,2,-19,8,11,38,111,78,44,16,-5,
15,19,4,-17,6,12,38,111,79,45,17,-1,
13,17,4,-15,5,11,39,111,80,47,19,0,
13,20,7,-16,3,14,39,110,81,48,20,1,
16,22,6,-19,5,14,38,107,81,48,21,1,
16,21,5,-18,6,13,37,106,81,49,22,2,
15,19,4,-17,6,12,35,104,80,50,23,3,
13,19,6,-16,4,13,33,101,78,49,24,3,
10,16,6,-13,2,11,32,98,76,48,22,2,
7,14,7,-10,0,11,32,95,76,48,23,2,
5,14,9,-9,-2,12,31,92,74,48,24,6,
4,14,10,-9,-3,12,30,86,71,45,22,4,
1,14,13,-7,-6,14,28,80,67,43,21,1,
3,17,14,-10,-5,16,28,76,63,42,21,1,
10,22,12,-16,-1,17,27,72,61,42,23,2,
12,22,10,-17,1,16,25,69,58,41,21,2,
10,20,10,-15,0,15,23,66,54,38,20,2,
8,18,10,-13,-1,14,21,62,51,37,20,1,
10,18,8,-14,1,13,21,58,48,35,19,1,
12,19,7,-15,3,13,21,54,45,35,19,0,
13,20,7,-16,3,14,20,49,42,33,18,0,
11,19,8,-15,2,14,20,44,39,31,18,0,
8,15,7,-11,1,11,19,39,33,28,15,-1,
5,12,7,-8,-1,10,16,34,28,23,13,-3,
0,11,11,-5,-5,11,16,30,23,21,11,-3,
-1,11,12,-5,-6,12,15,28,19,16,8,-5,
-3,10,13,-3,-8,12,14,26,17,14,8,-5,
-5,8,13,-1,-9,11,14,24,16,13,7,-8,
-5,8,13,-1,-9,11,13,22,14,13,6,-9,
-3,6,9,-1,-6,8,13,18,11,11,5,-10,
-5,6,11,0,-8,9,12,15,9,10,5,-10,
-7,9,16,-1,-11,13,12,15,8,10,4,-11,
-4,8,12,-2,-8,10,10,11,5,8,2,-13,
-5,5,10,0,-7,8,8,6,0,3,1,-13,
-5,4,9,1,-7,7,8,4,-1,1,1,-13,
-4,4,8,0,-6,6,9,4,-3,1,0,-13,
-6,3,9,2,-7,6,9,3,-4,1,-2,-14,
-9,3,12,3,-10,8,10,3,-2,2,0,-10,
-10,2,12,4,-11,7,10,3,-4,1,-1,-10,
-6,2,8,2,-7,5,7,1,-7,-2,-3,-14,
-5,4,9,1,-7,7,7,0,-9,-3,-4,-15,
-9,3,12,3,-10,8,7,0,-10,-3,-5,-15,
-9,2,11,4,-10,7,7,-2,-10,-3,-4,-15,
-7,1,8,3,-7,5,7,-4,-12,-4,-4,-15,
-5,1,6,2,-5,4,5,-6,-13,-6,-4,-14,
-1,3,4,-1,-2,4,5,-8,-14,-7,-6,-16,
-2,1,3,1,-2,2,5,-8,-14,-7,-7,-17,
-4,1,5,2,-4,3,5,-8,-14,-7,-6,-17,
-1,3,4,-1,-2,4,3,-9,-15,-7,-7,-16,
-1,1,2,0,-1,2,1,-11,-17,-9,-9,-17,
-6,1,7,3,-6,4,0,-12,-18,-9,-9,-18,
-7,1,8,3,-7,5,0,-10,-15,-8,-10,-18,
-11,0,11,6,-11,6,2,-9,-15,-8,-9,-17,
-11,1,12,5,-11,7,2,-9,-16,-8,-11,-18,
-6,2,8,2,-7,5,2,-10,-18,-8,-9,-19,
-6,0,6,3,-6,3,2,-11,-19,-9,-8,-20,
-7,-2,5,5,-6,2,4,-11,-18,-8,-7,-17,
-8,0,8,4,-8,4,4,-11,-17,-8,-7,-15,
-11,1,12,5,-11,7,4,-11,-17,-7,-8,-15,
-9,-1,8,5,-8,4,5,-11,-17,-7,-7,-15,
-5,-4,1,5,-3,-1,3,-11,-17,-7,-7,-15,
-5,-4,1,5,-3,-1,3,-12,-16,-7,-7,-16,
-5,-4,1,5,-3,-1,2,-11,-17,-7,-6,-16,
-7,-2,5,5,-6,2,2,-11,-15,-6,-5,-16,
-8,-2,6,5,-7,2,2,-10,-15,-6,-4,-17,
-8,-3,5,6,-6,1,1,-12,-16,-7,-5,-17,
-10,-3,7,7,-8,2,1,-12,-18,-9,-6,-18,
-10,-1,9,6,-9,4,1,-12,-17,-9,-5,-17,
-7,1,8,3,-7,5,1,-12,-16,-8,-5,-17,
-6,1,7,3,-6,4,1,-12,-17,-8,-5,-17,
-6,0,6,3,-6,3,2,-11,-17,-8,-6,-19,
-6,-2,4,4,-5,1,2,-11,-16,-8,-5,-18,
-7,-3,4,5,-5,1,3,-11,-17,-8,-6,-17,
-7,0,7,4,-7,4,4,-11,-16,-7,-6,-15,
-8,1,9,4,-8,5,5,-11,-16,-8,-7,-14,
-6,0,6,3,-6,3,5,-12,-16,-9,-9,-17,
-3,1,4,1,-3,3,5,-11,-16,-10,-9,-17,
-2,1,3,1,-2,2,5,-10,-15,-9,-9,-16,
-7,1,8,3,-7,5,6,-10,-14,-9,-8,-16,
-12,1,13,6,-12,7,6,-10,-14,-8,-8,-15,
-8,3,11,3,-9,7,6,-10,-15,-8,-8,-16,
-5,3,8,1,-6,6,6,-10,-15,-8,-7,-17,
-4,2,6,1,-5,4,6,-10,-15,-8,-8,-18,
-5,1,6,2,-5,4,6,-10,-15,-8,-8,-18,
-8,-1,7,5,-7,3,6,-10,-15,-8,-8,-18,
-10,0,10,5,-10,5,7,-10,-14,-7,-8,-17,
-13,0,13,7,-13,7,8,-10,-15,-7,-8,-19,
-10,0,10,5,-10,5,7,-10,-17,-9,-9,-21,
-8,-2,6,5,-7,2,8,-9,-16,-8,-8,-19,
-13,-5,8,9,-10,2,8,-7,-16,-8,-8,-19,
-13,-4,9,9,-11,3,8,-7,-17,-9,-8,-19,
-8,-3,5,6,-6,1,8,-8,-17,-10,-8,-20,
-8,-1,7,5,-7,3,8,-8,-16,-10,-6,-19,
-8,-1,7,5,-7,3,9,-8,-16,-9,-6,-18,
-8,-2,6,5,-7,2,9,-9,-16,-8,-7,-17,
-8,-2,6,5,-7,2,9,-9,-15,-8,-7,-18,
-6,-1,5,4,-5,2,9,-9,-14,-8,-7,-18,
-7,0,7,4,-7,4,10,-7,-13,-7,-7,-16,
-7,3,10,2,-8,7,11,-7,-13,-6,-6,-15,
-4,6,10,-1,-7,8,10,-7,-13,-6,-5,-15,
-5,3,8,1,-6,6,9,-6,-15,-8,-7,-18,
-5,1,6,2,-5,4,9,-7,-16,-7,-8,-18,
-7,1,8,3,-7,5,11,-5,-14,-7,-7,-17,
-10,0,10,5,-10,5,13,-4,-13,-6,-7,-16,
-8,-1,7,5,-7,3,12,-4,-12,-7,-7,-18,
-4,0,4,2,-4,2,11,-3,-12,-7,-7,-17,
-3,1,4,1,-3,3,11,-3,-12,-8,-6,-15,
-7,1,8,3,-7,5,11,-3,-12,-8,-6,-16,
-8,1,9,4,-8,5,11,-2,-13,-8,-7,-18,
-9,2,11,4,-10,7,11,-1,-12,-7,-8,-17,
-10,2,12,4,-11,7,12,1,-12,-6,-6,-16,
-7,4,11,2,-9,8,11,1,-11,-6,-7,-17,
-3,5,8,-1,-5,7,10,0,-11,-7,-8,-19,
-4,4,8,0,-6,6,10,-1,-13,-9,-9,-18,
-2,5,7,-1,-4,6,9,-2,-13,-10,-10,-17,
-4,4,8,0,-6,6,9,-1,-13,-10,-9,-19,
-6,6,12,0,-9,9,10,-1,-11,-8,-8,-17,
-5,8,13,-1,-9,11,9,-1,-11,-7,-9,-17,
-6,5,11,1,-8,8,9,-1,-11,-8,-10,-18,
-8,3,11,3,-9,7,10,-2,-10,-7,-9,-18,
-10,1,11,5,-10,6,9,-2,-11,-8,-9,-18,
-10,-1,9,6,-9,4,9,-2,-11,-9,-9,-19,
-9,1,10,4,-9,6,10,-1,-11,-8,-9,-17,
-7,4,11,2,-9,8,11,-1,-9,-5,-6,-16,
-7,4,11,2,-9,8,12,0,-8,-4,-6,-16,
-7,4,11,2,-9,8,13,-1,-8,-4,-6,-16,
-6,2,8,2,-7,5,13,-1,-9,-4,-8,-18,
-3,5,8,-1,-5,7,11,-1,-9,-5,-9,-20,
-3,6,9,-1,-6,8,12,0,-10,-4,-7,-20,
-3,8,11,-2,-7,10,13,0,-9,-4,-6,-16,
-1,8,9,-3,-5,9,12,0,-10,-6,-5,-17,
-1,6,7,-2,-4,7,11,-2,-10,-8,-7,-17,
-4,4,8,0,-6,6,10,-3,-11,-9,-9,-18,
-6,4,10,1,-8,7,10,-3,-11,-8,-9,-18,
-5,5,10,0,-7,8,10,-2,-10,-6,-7,-16,
-6,1,7,3,-6,4,10,-2,-10,-5,-7,-15,
-9,0,9,5,-9,5,10,-1,-10,-6,-8,-16,
-6,3,9,2,-7,6,10,-2,-11,-7,-8,-15,
-3,3,6,0,-4,5,10,-2,-10,-7,-8,-15,
-3,1,4,1,-3,3,10,-2,-12,-7,-9,-15,
-6,0,6,3,-6,3,11,-4,-13,-7,-8,-16,
-9,1,10,4,-9,6,11,-3,-12,-7,-7,-14,
-6,3,9,2,-7,6,12,-2,-12,-7,-8,-14,
-6,3,9,2,-7,6,11,-3,-13,-7,-8,-15,
-4,4,8,0,-6,6,11,-3,-13,-7,-7,-14,
-3,4,7,0,-5,6,11,-4,-13,-8,-7,-16,
-1,2,3,0,-2,3,9,-4,-14,-9,-8,-18,
-2,2,4,0,-3,3,8,-5,-13,-7,-7,-18,
-7,2,9,3,-8,6,9,-5,-13,-7,-6,-16,
-11,0,11,6,-11,6,11,-4,-12,-8,-6,-16,
-10,1,11,5,-10,6,11,-4,-12,-7,-5,-15,
-7,4,11,2,-9,8,11,-4,-12,-7,-5,-14,
-7,2,9,3,-8,6,10,-4,-13,-9,-7,-16,
-6,4,10,1,-8,7,9,-5,-14,-10,-9,-18,
-6,0,6,3,-6,3,9,-3,-12,-8,-7,-16,
-8,-3,5,6,-6,1,12,-3,-12,-7,-5,-16,
-9,-3,6,6,-7,2,10,-5,-13,-8,-6,-18,
-11,-3,8,7,-9,3,10,-5,-15,-8,-6,-18,
-11,-1,10,6,-10,5,10,-5,-15,-9,-6,-17,
-9,-1,8,5,-8,4,9,-5,-16,-10,-7,-19,
-4,0,4,2,-4,2,8,-5,-18,-10,-7,-20,
0,1,1,0,0,1,7,-6,-17,-9,-9,-18,
-1,2,3,0,-2,3,7,-7,-17,-9,-10,-18,
-8,3,11,3,-9,7,8,-6,-16,-7,-9,-17,
-8,2,10,3,-9,6,8,-6,-16,-6,-9,-17,
-3,2,5,1,-4,4,6,-8,-17,-8,-10,-18,
-4,1,5,2,-4,3,5,-10,-17,-10,-9,-18,
-8,0,8,4,-8,4,6,-10,-16,-10,-9,-17,
-9,0,9,5,-9,5,7,-9,-16,-9,-8,-18,
-9,0,9,5,-9,5,6,-9,-16,-8,-8,-17,
-8,0,8,4,-8,4,6,-9,-15,-8,-7,-16,
-8,0,8,4,-8,4,6,-9,-15,-8,-7,-15,
-10,-3,7,7,-8,2,6,-10,-15,-9,-8,-16,
-12,-5,7,9,-9,1,6,-10,-16,-9,-9,-16,
-10,-3,7,7,-8,2,6,-9,-16,-9,-10,-15,
-6,1,7,3,-6,4,5,-10,-17,-9,-9,-15,
-5,2,7,2,-6,5,5,-12,-19,-10,-10,-16,
-5,0,5,3,-5,3,5,-11,-18,-10,-10,-18,
-5,0,5,3,-5,3,5,-11,-17,-11,-11,-17,
-3,2,5,1,-4,4,5,-11,-17,-9,-11,-17,
-4,4,8,0,-6,6,5,-10,-16,-9,-10,-16,
-7,2,9,3,-8,6,6,-10,-16,-8,-10,-16,
-6,1,7,3,-6,4,3,-13,-17,-9,-10,-16,
-5,2,7,2,-6,5,3,-13,-17,-9,-9,-16,
-9,1,10,4,-9,6,5,-10,-16,-8,-8,-16,
-11,-2,9,7,-10,4,5,-10,-16,-6,-8,-19,
-9,0,9,5,-9,5,5,-10,-16,-6,-8,-17,
-10,0,10,5,-10,5,6,-10,-15,-7,-7,-16,
-12,-1,11,7,-11,5,8,-9,-15,-6,-7,-17,
-13,-2,11,8,-12,5,6,-10,-15,-7,-9,-19,
-13,-6,7,10,-10,1,5,-12,-16,-9,-11,-20,
-8,-4,4,6,-6,0,5,-12,-15,-7,-9,-19,
-7,-3,4,5,-5,1,6,-11,-16,-7,-8,-16,
-8,-3,5,6,-6,1,6,-12,-16,-7,-7,-15,
-9,-3,6,6,-7,2,5,-11,-17,-10,-8,-18,
-9,-6,3,8,-6,-1,5,-12,-17,-11,-8,-20,
-11,-7,4,9,-7,-1,5,-12,-17,-11,-10,-19,
-11,-4,7,8,-9,2,4,-13,-18,-10,-10,-18,
-9,-1,8,5,-8,4,5,-12,-17,-9,-10,-18,
-7,-1,6,4,-6,3,5,-12,-17,-9,-10,-17,
-7,-3,4,5,-5,1,5,-13,-19,-10,-10,-18,
-10,-3,7,7,-8,2,6,-12,-18,-10,-9,-17,
-7,0,7,4,-7,4,6,-12,-18,-9,-9,-17,
-5,1,6,2,-5,4,5,-12,-18,-9,-9,-16,
-5,0,5,3,-5,3,5,-13,-18,-9,-9,-16,
-6,0,6,3,-6,3,5,-12,-19,-10,-10,-18,
-4,0,4,2,-4,2,5,-12,-19,-10,-10,-17,
-1,0,1,1,-1,1,5,-12,-18,-9,-8,-16,
-2,0,2,1,-2,1,5,-12,-18,-9,-8,-17,
-6,-4,2,5,-4,-1,4,-13,-18,-10,-8,-19,
-6,-3,3,5,-4,0,4,-14,-18,-9,-8,-18,
-4,-3,1,4,-2,-1,5,-13,-17,-9,-9,-17,
-6,-3,3,5,-4,0,6,-14,-19,-10,-10,-18,
-8,-3,5,6,-6,1,6,-14,-18,-11,-11,-19,
-11,-3,8,7,-9,3,6,-13,-18,-11,-10,-19,
-12,-2,10,7,-11,4,8,-13,-17,-9,-9,-15,
-6,2,8,2,-7,5,8,-12,-17,-9,-9,-14,
-6,2,8,2,-7,5,8,-13,-17,-10,-11,-15,
-8,1,9,4,-8,5,8,-14,-18,-10,-11,-16,
-10,0,10,5,-10,5,8,-13,-18,-10,-10,-16,
-8,1,9,4,-8,5,8,-13,-17,-9,-10,-15,
-3,3,6,0,-4,5,8,-12,-17,-9,-8,-14,
-5,1,6,2,-5,4,8,-12,-17,-9,-8,-14,
-8,-3,5,6,-6,1,7,-12,-17,-10,-9,-16,
-11,-4,7,8,-9,2,6,-13,-18,-10,-8,-15,
-7,-3,4,5,-5,1,6,-13,-18,-11,-10,-18,
-6,0,6,3,-6,3,6,-12,-18,-10,-10,-19,
-7,1,8,3,-7,5,8,-12,-17,-10,-10,-17,
-9,0,9,5,-9,5,7,-14,-17,-11,-12,-18,
-7,-3,4,5,-5,1,6,-14,-16,-10,-11,-17,
-6,-2,4,4,-5,1,5,-14,-16,-10,-11,-17,
-6,2,8,2,-7,5,5,-15,-18,-11,-12,-17,
-7,2,9,3,-8,6,5,-15,-19,-10,-11,-18,
-9,-2,7,6,-8,3,6,-14,-18,-10,-11,-18,
-9,-4,5,7,-7,1,6,-13,-18,-10,-10,-17,
-7,-4,3,6,-5,0,4,-13,-19,-11,-11,-18,
-8,-4,4,6,-6,0,4,-14,-20,-11,-12,-19,
-8,-2,6,5,-7,2,4,-14,-19,-10,-12,-17,
-8,-2,6,5,-7,2,5,-14,-18,-10,-13,-17,
-10,-2,8,6,-9,3,6,-15,-18,-10,-11,-16,
-9,-2,7,6,-8,3,5,-15,-17,-9,-11,-17,
-7,-1,6,4,-6,3,5,-14,-18,-9,-11,-18,
-6,1,7,3,-6,4,6,-14,-16,-9,-11,-17,
-6,3,9,2,-7,6,3,-16,-17,-11,-12,-17,
-6,3,9,2,-7,6,3,-15,-18,-11,-14,-19,
-6,4,10,1,-8,7,6,-13,-17,-9,-11,-16,
-7,3,10,2,-8,7,6,-13,-17,-9,-10,-13,
-7,3,10,2,-8,7,6,-13,-17,-10,-11,-13,
-5,3,8,1,-6,6,6,-13,-16,-9,-11,-13,
-8,-3,5,6,-6,1,6,-13,-16,-10,-12,-14,
-10,-6,4,8,-7,-1,5,-13,-17,-11,-12,-14,
-10,-3,7,7,-8,2,5,-13,-16,-10,-12,-16,
-10,-3,7,7,-8,2,6,-12,-15,-9,-11,-16,
-7,-2,5,5,-6,2,6,-12,-15,-9,-9,-14,
-5,0,5,3,-5,3,6,-11,-15,-9,-7,-12,
-7,0,7,4,-7,4,4,-12,-15,-8,-9,-14,
-11,-1,10,6,-10,5,4,-14,-17,-11,-11,-19,
-13,-2,11,8,-12,5,4,-13,-17,-11,-12,-16,
-11,-2,9,7,-10,4,4,-13,-18,-11,-11,-14,
-6,2,8,2,-7,5,4,-12,-18,-12,-12,-15,
-4,2,6,1,-5,4,5,-12,-17,-11,-12,-15,
-5,-1,4,3,-4,2,5,-12,-17,-10,-12,-15,
-5,-1,4,3,-4,2,6,-13,-16,-9,-11,-13,
-4,0,4,2,-4,2,6,-13,-17,-9,-11,-14,
1,0,-1,0,1,0,5,-14,-19,-10,-12,-16,
1,0,-1,0,1,0,7,-13,-17,-9,-12,-18,
-4,0,4,2,-4,2,8,-12,-15,-8,-10,-17,
-8,1,9,4,-8,5,8,-10,-15,-7,-8,-15,
-13,2,15,6,-14,9,9,-9,-12,-6,-7,-11,
-9,6,15,2,-12,11,9,-8,-11,-6,-7,-10,
-2,7,9,-2,-5,8,9,-8,-11,-7,-7,-11,
-4,7,11,-1,-7,9,10,-7,-10,-5,-6,-12,
-11,6,17,3,-14,12,12,-8,-10,-4,-6,-11,
-11,6,17,3,-14,12,11,-9,-11,-5,-8,-12,
-8,9,17,0,-12,13,13,-7,-9,-3,-6,-11,
-5,9,14,-2,-9,12,14,-6,-9,-2,-6,-11,
-3,10,13,-3,-8,12,14,-4,-9,-2,-6,-12,
-1,10,11,-4,-6,11,14,-4,-8,-2,-6,-13,
0,11,11,-5,-5,11,14,-4,-8,-1,-6,-14,
2,9,7,-5,-2,8,15,-2,-5,0,-6,-13,
-1,8,9,-3,-5,9,16,-1,-5,1,-5,-13,
-3,7,10,-2,-6,9,16,0,-6,1,-4,-12,
0,7,7,-3,-3,7,16,-1,-5,1,-4,-12,
2,9,7,-5,-2,8,16,-1,-6,1,-4,-11,
2,10,8,-6,-3,9,14,-1,-6,2,-3,-10,
3,11,8,-7,-2,10,13,-2,-6,3,-3,-10,
0,9,9,-4,-4,9,13,-1,-5,3,-2,-9,
-2,9,11,-3,-6,10,12,-2,-6,2,-2,-9,
-2,8,10,-3,-6,9,11,-3,-5,0,-2,-9,
0,10,10,-5,-5,10,9,-3,-4,1,0,-6,
1,15,14,-8,-6,15,7,-4,-3,1,0,-6,
3,17,14,-10,-5,16,4,-8,-5,-1,-1,-7,
3,16,13,-9,-5,15,2,-10,-7,-3,-3,-8,
3,11,8,-7,-2,10,0,-11,-8,-3,-4,-8,
6,10,4,-8,1,7,-1,-14,-12,-3,-4,-9,
6,11,5,-8,1,8,-2,-16,-13,-2,-4,-10,
6,10,4,-8,1,7,-2,-16,-13,-2,-4,-10,
8,13,5,-10,2,9,-4,-17,-14,-4,-4,-11,
11,14,3,-12,4,9,-6,-17,-15,-5,-6,-11,
11,13,2,-12,5,8,-4,-15,-14,-6,-7,-11,
8,13,5,-10,2,9,-3,-14,-14,-6,-5,-10,
4,12,8,-8,-2,10,-3,-13,-13,-6,-5,-11,
3,8,5,-5,-1,7,-2,-12,-13,-6,-6,-13,
3,8,5,-5,-1,7,-1,-11,-12,-7,-6,-14,
3,8,5,-5,-1,7,1,-9,-10,-5,-3,-12,
3,7,4,-5,0,6,4,-7,-7,-3,-1,-10,
3,7,4,-5,0,6,5,-6,-7,-2,-1,-9,
1,6,5,-3,-2,6,6,-7,-7,-2,-2,-8,
2,6,4,-4,-1,5,6,-9,-8,-1,-2,-9,
3,6,3,-4,0,5,6,-9,-8,-1,-3,-10,
4,7,3,-5,1,5,6,-9,-8,-1,-1,-8,
4,10,6,-7,-1,8,5,-9,-8,0,0,-7,
1,8,7,-4,-3,8,4,-10,-9,-1,-1,-7,
2,8,6,-5,-2,7,4,-11,-10,-1,-1,-6,
3,8,5,-5,-1,7,3,-11,-10,-2,-1,-5,
4,8,4,-6,0,6,0,-14,-12,-5,-4,-11,
1,5,4,-3,-1,5,-1,-15,-13,-6,-6,-15,
-4,1,5,2,-4,3,0,-15,-13,-6,-6,-14,
-8,1,9,4,-8,5,1,-16,-15,-8,-8,-15,
-11,0,11,6,-11,6,1,-16,-16,-10,-10,-17,
-7,-1,6,4,-6,3,1,-16,-16,-10,-10,-17,
-5,-4,1,5,-3,-1,0,-18,-18,-12,-12,-20,
-7,-7,0,7,-3,-3,-1,-20,-20,-14,-12,-20,
-7,-7,0,7,-3,-3,0,-20,-20,-13,-12,-20,
-5,-4,1,5,-3,-1,1,-20,-20,-13,-13,-20,
-4,-1,3,3,-3,1,2,-20,-20,-12,-14,-19,
-7,-1,6,4,-6,3,2,-20,-20,-13,-13,-19,
-11,-4,7,8,-9,2,1,-20,-20,-15,-13,-19,
-13,-5,8,9,-10,2,0,-20,-20,-14,-14,-20,
-12,-4,8,8,-10,2,2,-18,-19,-13,-14,-19,
-9,-3,6,6,-7,2,4,-16,-17,-9,-13,-17,
-7,-4,3,6,-5,0,3,-16,-17,-8,-13,-17,
-7,-5,2,6,-4,-1,3,-17,-19,-10,-15,-19,
-9,-5,4,7,-6,0,1,-18,-20,-12,-16,-21,
-8,-6,2,7,-5,-2,0,-18,-21,-14,-18,-22,
-13,-10,3,12,-8,-3,3,-14,-19,-14,-17,-21,
-16,-11,5,14,-10,-3,8,-6,-14,-12,-15,-20,
-14,-9,5,12,-9,-2,12,2,-11,-11,-15,-21,
-8,-8,0,8,-4,-4,16,12,-6,-10,-17,-23,
-4,-8,-4,6,0,-6,23,26,0,-8,-16,-23,
-3,-8,-5,6,1,-6,31,42,11,-2,-14,-22,
0,-7,-7,4,4,-7,42,60,27,8,-8,-17,
7,-4,-11,-1,9,-7,51,76,45,23,0,-11,
11,0,-11,-5,11,-5,60,88,66,42,12,-4,
17,5,-12,-11,15,-3,66,99,90,63,25,3,
24,12,-12,-18,18,0,68,107,114,84,38,10,
38,25,-13,-31,26,6,63,111,137,111,57,21,
55,40,-15,-47,35,13,45,105,158,137,81,38,
74,57,-17,-65,46,20,19,89,174,162,105,56,
88,78,-10,-83,49,34,-11,70,190,188,131,78,
105,102,-3,-103,54,50,-50,44,206,216,162,105,
119,127,8,-123,56,68,-91,14,223,249,194,133,
128,150,22,-139,53,86,-133,-21,232,277,224,160,
142,165,23,-153,60,94,-176,-61,232,295,246,180,
156,178,22,-167,67,100,-214,-103,227,307,265,196,
166,187,21,-176,73,104,-251,-147,219,314,282,212,
171,196,25,-183,73,111,-286,-190,204,315,294,223,
173,206,33,-189,70,120,-320,-235,184,311,300,232,
174,211,37,-192,69,124,-344,-271,160,303,302,236,
165,206,41,-185,62,124,-353,-292,133,286,296,233,
153,197,44,-175,55,121,-349,-300,107,266,286,231,
141,186,45,-163,48,116,-331,-288,85,237,263,217,
124,162,38,-143,43,100,-299,-261,61,188,218,186,
103,132,29,-117,37,81,-265,-236,30,126,164,148,
77,102,25,-89,26,64,-230,-216,-4,65,111,110,
57,79,22,-68,18,51,-192,-192,-26,23,73,79,
40,61,21,-50,10,41,-154,-164,-33,1,48,55,
24,47,23,-35,1,35,-119,-136,-37,-10,31,36,
11,38,27,-24,-8,33,-89,-112,-40,-14,20,22,
6,31,25,-18,-9,28,-64,-89,-41,-15,12,13,
5,24,19,-14,-7,22,-47,-68,-39,-13,6,6,
0,17,17,-8,-8,17,-33,-49,-33,-11,3,1,
-5,10,15,-2,-10,13,-23,-35,-27,-9,1,0,
-6,8,14,-1,-10,11,-17,-27,-22,-9,-1,-3,
-7,5,12,1,-9,9,-14,-21,-16,-10,-5,-8,
-8,3,11,3,-9,7,-8,-17,-10,-8,-7,-11,
-6,1,7,3,-6,4,-3,-14,-4,-7,-9,-14,
-9,0,9,5,-9,5,1,-12,0,-6,-12,-17,
-11,0,11,6,-11,6,6,-8,0,-5,-13,-19,
-11,-1,10,6,-10,5,9,-4,-2,-6,-14,-19,
-8,2,10,3,-9,6,11,-1,-5,-8,-14,-19,
-5,4,9,1,-7,7,10,0,-10,-11,-15,-20,
-7,3,10,2,-8,7,10,0,-13,-13,-16,-20,
-9,4,13,3,-11,9,10,2,-13,-13,-15,-18,
-11,7,18,2,-14,13,12,3,-10,-12,-14,-15,
-15,4,19,6,-17,12,13,3,-10,-12,-14,-15,
-15,0,15,8,-15,8,14,2,-10,-14,-18,-19,
-13,-3,10,8,-11,4,14,3,-10,-15,-20,-22,
-13,-4,9,9,-11,3,16,5,-9,-15,-20,-23,
-12,-3,9,8,-10,3,17,6,-9,-14,-19,-23,
-13,-2,11,8,-12,5,17,6,-10,-13,-19,-23,
-13,-3,10,8,-11,4,18,6,-11,-13,-19,-24,
-16,-10,6,13,-11,-2,18,5,-11,-15,-21,-24,
-18,-13,5,16,-11,-4,18,5,-10,-15,-22,-24,
-17,-10,7,14,-12,-1,19,5,-11,-15,-22,-25,
-15,-9,6,12,-10,-1,18,5,-10,-15,-23,-26,
-15,-8,7,12,-11,0,19,7,-10,-15,-23,-25,
-19,-8,11,14,-15,2,22,8,-8,-13,-22,-25,
-23,-12,11,18,-17,0,22,9,-8,-13,-22,-26,
-20,-12,8,16,-14,-2,21,9,-9,-15,-23,-27,
-15,-10,5,13,-10,-2,20,8,-10,-15,-23,-28,
-17,-11,6,14,-11,-2,21,9,-10,-15,-22,-27,
-17,-12,5,15,-11,-3,21,10,-11,-15,-22,-27,
-17,-11,6,14,-11,-2,22,11,-10,-15,-22,-27,
-17,-10,7,14,-12,-1,22,11,-9,-15,-22,-27,
-14,-9,5,12,-9,-2,21,11,-9,-15,-23,-27,
-13,-9,4,11,-8,-2,21,12,-10,-15,-23,-27,
-14,-6,8,10,-11,1,21,12,-9,-15,-22,-25,
-15,-6,9,11,-12,2,22,13,-8,-14,-22,-24,
-18,-8,10,13,-14,1,23,13,-7,-14,-21,-24,
-18,-7,11,13,-14,2,24,14,-7,-14,-19,-26,
-19,-8,11,14,-15,2,25,15,-6,-12,-18,-24,
-18,-10,8,14,-13,-1,25,15,-6,-12,-19,-23,
-15,-9,6,12,-10,-1,25,15,-6,-12,-21,-24,
-11,-8,3,10,-7,-2,25,16,-5,-11,-20,-23,
-10,-8,2,9,-6,-3,26,16,-5,-11,-19,-22,
-13,-10,3,12,-8,-3,26,18,-5,-11,-18,-21,
-15,-12,3,14,-9,-4,27,19,-4,-11,-17,-19,
-15,-9,6,12,-10,-1,28,19,-3,-10,-19,-20,
-16,-8,8,12,-12,0,28,19,-2,-12,-20,-22,
-19,-12,7,16,-13,-2,28,21,-2,-11,-19,-22,
-16,-15,1,16,-8,-7,27,20,-3,-13,-20,-23,
-14,-11,3,13,-8,-4,27,20,-4,-14,-19,-22,
-14,-8,6,11,-10,-1,29,22,-1,-11,-17,-20,
-14,-11,3,13,-8,-4,30,23,0,-10,-17,-21,
-14,-14,0,14,-7,-7,30,23,1,-10,-19,-21,
-13,-12,1,13,-7,-5,29,23,2,-11,-19,-21,
-12,-11,1,12,-6,-5,29,24,2,-11,-19,-20,
-11,-10,1,11,-6,-4,30,26,3,-10,-18,-21,
-13,-12,1,13,-7,-5,30,27,3,-9,-18,-21,
-16,-12,4,14,-10,-4,30,28,3,-9,-18,-20,
-12,-8,4,10,-8,-2,30,28,4,-8,-17,-20,
-11,-8,3,10,-7,-2,30,29,4,-8,-18,-22,
-8,-8,0,8,-4,-4,29,29,4,-8,-19,-24,
-6,-8,-2,7,-2,-5,29,30,5,-7,-18,-22,
-10,-10,0,10,-5,-5,30,31,5,-7,-18,-23,
-15,-12,3,14,-9,-4,32,31,6,-7,-18,-24,
-18,-15,3,17,-10,-6,32,31,6,-7,-18,-24,
-18,-15,3,17,-10,-6,32,32,5,-6,-17,-24,
-19,-16,3,18,-11,-6,32,33,6,-6,-17,-24,
-19,-15,4,17,-11,-5,34,36,8,-6,-17,-23,
-17,-14,3,16,-10,-5,34,38,10,-6,-17,-22,
-17,-15,2,16,-9,-6,34,38,10,-6,-17,-23,
-17,-16,1,17,-9,-7,33,38,11,-6,-17,-24,
-13,-14,-1,14,-6,-7,35,40,13,-5,-16,-22,
-9,-12,-3,11,-3,-7,37,42,13,-4,-16,-21,
-8,-10,-2,9,-3,-6,37,42,14,-5,-16,-22,
-9,-9,0,9,-4,-4,37,44,14,-3,-15,-21,
-10,-11,-1,11,-4,-6,37,45,14,-3,-15,-21,
-10,-14,-4,12,-3,-9,36,46,14,-1,-15,-20,
-9,-12,-3,11,-3,-7,38,49,16,1,-14,-20,
-9,-9,0,9,-4,-4,39,50,18,1,-13,-20,
-9,-9,0,9,-4,-4,39,51,18,2,-13,-19,
-11,-9,2,10,-6,-3,39,51,19,2,-13,-19,
-12,-11,1,12,-6,-5,39,52,19,3,-14,-20,
-13,-12,1,13,-7,-5,40,53,19,3,-13,-21,
-13,-11,2,12,-7,-4,40,54,20,3,-13,-22,
-12,-11,1,12,-6,-5,41,55,21,3,-14,-22,
-10,-10,0,10,-5,-5,42,57,22,3,-13,-22,
-7,-7,0,7,-3,-3,42,60,24,4,-12,-22,
-9,-5,4,7,-6,0,43,62,25,5,-13,-22,
-10,-6,4,8,-7,-1,43,63,26,6,-14,-22,
-7,-6,1,7,-4,-2,43,66,28,6,-13,-19,
-5,-6,-1,6,-2,-3,44,67,29,8,-13,-18,
-4,-3,1,4,-2,-1,47,70,32,10,-11,-15,
-4,-3,1,4,-2,-1,49,75,37,14,-8,-13,
-6,-2,4,4,-5,1,49,76,38,14,-7,-13,
-6,-2,4,4,-5,1,49,77,38,13,-8,-15,
-6,-3,3,5,-4,0,50,80,40,14,-6,-14,
-3,-4,-1,4,-1,-2,51,82,42,15,-5,-14,
1,-5,-6,2,4,-5,49,82,42,15,-7,-15,
0,-6,-6,3,3,-6,51,85,45,16,-5,-15,
-6,-4,2,5,-4,-1,55,91,49,20,-3,-11,
-6,-4,2,5,-4,-1,54,92,50,20,-3,-11,
-2,-2,0,2,-1,-1,54,93,50,19,-4,-13,
0,-2,-2,1,1,-2,54,93,51,19,-3,-14,
0,-3,-3,2,2,-3,54,95,54,22,-1,-11,
2,-3,-5,1,4,-4,52,96,55,22,-1,-11,
1,-2,-3,1,2,-2,51,97,57,22,-1,-11,
-1,1,2,0,-1,2,51,99,60,25,0,-12,
2,6,4,-4,-1,5,52,102,63,26,1,-9,
4,5,1,-4,2,3,53,105,65,28,2,-9,
7,5,-2,-6,5,2,53,107,69,29,2,-11,
7,5,-2,-6,5,2,53,109,70,30,2,-12,
7,6,-1,-6,4,3,52,109,71,31,2,-10,
6,6,0,-6,3,3,53,112,73,33,3,-8,
5,6,1,-5,2,4,53,114,73,33,4,-7,
6,2,-4,-4,5,-1,52,114,73,33,4,-8,
6,3,-3,-4,5,0,52,115,76,36,6,-6,
6,5,-1,-5,4,2,54,117,79,38,9,-4,
8,6,-2,-7,5,2,53,117,80,39,9,-5,
13,10,-3,-11,8,4,53,118,82,42,12,-3,
12,12,0,-12,6,6,53,120,85,44,14,-1,
10,14,4,-12,3,9,52,120,85,45,14,-1,
12,12,0,-12,6,6,52,121,88,46,14,-1,
9,12,3,-10,3,8,52,121,88,47,15,0,
9,15,6,-12,2,11,51,119,89,48,16,0,
13,18,5,-15,4,12,48,118,88,48,16,1,
14,17,3,-15,6,10,48,117,89,49,17,2,
9,13,4,-11,3,9,48,118,90,51,19,5,
4,12,8,-8,-2,10,49,118,91,52,18,6,
3,12,9,-7,-3,11,48,116,92,52,20,6,
7,14,7,-10,0,11,44,113,90,51,19,4,
10,15,5,-12,3,10,41,108,87,50,19,4,
13,18,5,-15,4,12,40,107,87,51,21,5,
13,20,7,-16,3,14,43,106,88,53,23,7,
12,20,8,-16,2,14,43,104,88,54,23,8,
12,20,8,-16,2,14,40,100,86,52,22,7,
14,23,9,-18,3,16,37,95,82,51,21,7,
13,25,12,-19,1,19,38,92,81,51,24,7,
12,25,13,-18,0,19,37,88,78,49,24,7,
10,23,13,-16,-1,18,35,82,72,46,21,2,
10,20,10,-15,0,15,33,76,66,43,19,0,
8,17,9,-12,0,13,31,71,62,41,18,0,
4,15,11,-9,-3,13,30,65,59,40,17,1,
6,17,11,-11,-2,14,29,62,58,39,16,2,
7,15,8,-11,0,12,28,59,55,37,14,1,
6,14,8,-10,-1,11,26,54,51,36,12,0,
6,13,7,-9,0,10,24,48,45,34,11,-1,
6,12,6,-9,0,9,24,45,41,34,11,-2,
8,14,6,-11,1,10,25,42,39,32,11,-2,
7,15,8,-11,0,12,23,39,37,30,10,-2,
6,14,8,-10,-1,11,22,36,34,27,10,-3,
7,15,8,-11,0,12,22,33,31,25,9,-3,
5,15,10,-10,-2,13,22,30,29,23,9,-2,
5,13,8,-9,-1,11,20,25,26,21,7,-1,
3,11,8,-7,-2,10,19,21,22,18,5,-3,
3,10,7,-6,-2,9,18,17,18,15,3,-3,
4,9,5,-6,0,7,18,14,15,14,2,-5,
0,7,7,-3,-3,7,17,13,12,12,1,-5,
-2,3,5,0,-3,4,14,10,8,10,-1,-6,
-3,1,4,1,-3,3,13,6,5,8,-3,-8,
0,5,5,-2,-2,5,12,6,5,6,-3,-10,
1,9,8,-5,-3,9,11,5,4,5,-4,-8,
1,10,9,-5,-4,10,9,3,2,4,-4,-9,
-5,7,12,-1,-8,10,9,2,1,3,-5,-12,
-10,4,14,3,-12,9,12,1,1,3,-6,-11,
-8,1,9,4,-8,5,12,0,-1,2,-7,-10,
-2,3,5,0,-3,4,10,-2,-3,0,-7,-12,
2,4,2,-3,0,3,10,-3,-4,-1,-9,-13,
-2,1,3,1,-2,2,10,-2,-5,-1,-8,-12,
-4,1,5,2,-4,3,10,-3,-5,-1,-7,-11,
-4,3,7,1,-5,5,8,-5,-6,-1,-9,-13,
-6,2,8,2,-7,5,7,-5,-6,-2,-10,-15,
-6,0,6,3,-6,3,7,-8,-7,-4,-11,-15,
-9,-1,8,5,-8,4,7,-8,-7,-4,-12,-17,
-6,0,6,3,-6,3,8,-8,-6,-4,-11,-15,
-6,-1,5,4,-5,2,9,-7,-6,-3,-10,-15,
-8,-2,6,5,-7,2,9,-7,-7,-4,-10,-15,
-11,-2,9,7,-10,4,8,-7,-8,-4,-10,-15,
-10,-2,8,6,-9,3,8,-8,-9,-6,-11,-15,
-5,0,5,3,-5,3,8,-8,-8,-6,-10,-14,
-2,4,6,-1,-4,5,9,-7,-8,-6,-8,-11,
-2,8,10,-3,-6,9,9,-6,-8,-5,-8,-10,
-4,5,9,0,-6,7,7,-7,-8,-6,-8,-12,
-7,1,8,3,-7,5,5,-8,-10,-8,-10,-16,
-4,0,4,2,-4,2,5,-9,-12,-8,-11,-17,
0,0,0,0,0,0,6,-9,-11,-7,-10,-16,
0,2,2,-1,-1,2,4,-10,-12,-7,-11,-16,
-3,4,7,0,-5,6,4,-11,-12,-8,-11,-15,
-7,4,11,2,-9,8,5,-11,-11,-7,-11,-15,
-8,4,12,2,-10,8,3,-12,-13,-7,-11,-17,
-6,3,9,2,-7,6,3,-13,-14,-7,-12,-17,
-3,3,6,0,-4,5,3,-11,-13,-7,-12,-17,
-3,2,5,1,-4,4,4,-11,-13,-8,-13,-17,
-5,1,6,2,-5,4,3,-11,-13,-9,-14,-18,
-5,3,8,1,-6,6,4,-11,-12,-8,-12,-19,
-6,3,9,2,-7,6,6,-9,-11,-7,-9,-16,
-8,2,10,3,-9,6,6,-9,-10,-7,-9,-12,
-7,2,9,3,-8,6,8,-9,-10,-7,-9,-12,
-4,4,8,0,-6,6,7,-9,-10,-7,-11,-13,
-5,3,8,1,-6,6,7,-8,-10,-6,-11,-14,
-2,1,3,1,-2,2,7,-8,-11,-7,-13,-15,
-4,0,4,2,-4,2,7,-8,-11,-7,-11,-14,
-11,0,11,6,-11,6,9,-7,-8,-7,-10,-13,
-11,1,12,5,-11,7,8,-7,-9,-8,-12,-13,
-6,2,8,2,-7,5,5,-9,-11,-9,-15,-16,
-6,1,7,3,-6,4,5,-8,-11,-8,-13,-14,
-4,0,4,2,-4,2,5,-8,-12,-9,-13,-14,
-3,0,3,2,-3,2,6,-8,-11,-8,-13,-15,
-4,2,6,1,-5,4,8,-7,-10,-7,-12,-14,
-7,4,11,2,-9,8,8,-7,-8,-6,-12,-14,
-7,3,10,2,-8,7,7,-7,-9,-7,-12,-15,
-7,2,9,3,-8,6,7,-9,-11,-9,-14,-17,
-5,2,7,2,-6,5,7,-8,-10,-8,-13,-14,
-2,4,6,-1,-4,5,8,-6,-9,-6,-13,-14,
-8,3,11,3,-9,7,9,-5,-8,-6,-13,-15,
-9,2,11,4,-10,7,8,-5,-9,-7,-15,-17,
-3,3,6,0,-4,5,8,-6,-9,-6,-14,-18,
-1,6,7,-2,-4,7,7,-7,-9,-6,-12,-16,
-5,6,11,0,-8,9,7,-8,-9,-6,-11,-15,
-7,4,11,2,-9,8,9,-5,-7,-6,-11,-14,
-5,2,7,2,-6,5,10,-4,-6,-6,-11,-14,
-5,3,8,1,-6,6,11,-4,-6,-5,-10,-14,
-8,4,12,2,-10,8,10,-4,-6,-4,-10,-15,
-6,2,8,2,-7,5,10,-5,-7,-6,-10,-15,
-7,1,8,3,-7,5,10,-4,-7,-5,-8,-14,
-7,3,10,2,-8,7,11,-3,-6,-4,-8,-14,
-7,5,12,1,-9,9,11,-4,-6,-3,-8,-15,
-12,3,15,5,-13,9,11,-3,-6,-4,-10,-15,
-15,0,15,8,-15,8,12,-3,-5,-2,-10,-15,
-16,0,16,8,-16,8,12,-2,-4,-2,-9,-15,
-8,4,12,2,-10,8,12,-2,-4,-3,-9,-14,
-3,5,8,-1,-5,7,12,-3,-4,-3,-9,-14,
-2,3,5,0,-3,4,12,-4,-6,-4,-10,-17,
-4,3,7,1,-5,5,12,-3,-6,-3,-9,-16,
-4,4,8,0,-6,6,13,-3,-5,-3,-10,-16,
-5,4,9,1,-7,7,12,-3,-5,-3,-10,-16,
-8,2,10,3,-9,6,13,-3,-5,-3,-9,-16,
-8,1,9,4,-8,5,13,-2,-5,-4,-10,-16,
-5,0,5,3,-5,3,13,-2,-6,-4,-10,-16,
-5,-1,4,3,-4,2,12,-2,-6,-4,-11,-15,
-7,0,7,4,-7,4,12,-2,-6,-5,-13,-18,
-7,1,8,3,-7,5,11,-3,-6,-5,-13,-17,
-8,4,12,2,-10,8,11,-4,-7,-5,-12,-17,
-9,3,12,3,-10,8,12,-3,-6,-4,-11,-16,
-9,3,12,3,-10,8,12,-2,-5,-4,-10,-15,
-7,5,12,1,-9,9,11,-3,-6,-4,-9,-15,
-4,6,10,-1,-7,8,11,-3,-7,-4,-10,-17,
-3,6,9,-1,-6,8,11,-3,-5,-2,-9,-15,
-4,8,12,-2,-8,10,13,-1,-4,-1,-6,-12,
-4,7,11,-1,-7,9,13,-1,-4,-1,-6,-12,
-2,7,9,-2,-5,8,10,-2,-5,-3,-8,-14,
-1,6,7,-2,-4,7,10,-2,-5,-3,-9,-12,
-5,3,8,1,-6,6,10,-2,-5,-4,-10,-12,
-9,2,11,4,-10,7,11,-2,-5,-3,-11,-14,
-11,0,11,6,-11,6,11,-2,-6,-4,-11,-17,
-8,0,8,4,-8,4,11,-3,-5,-3,-10,-16,
-6,1,7,3,-6,4,11,-4,-6,-2,-10,-16,
-6,3,9,2,-7,6,9,-5,-7,-3,-10,-16,
-8,3,11,3,-9,7,8,-7,-7,-4,-12,-17,
-9,0,9,5,-9,5,9,-7,-8,-5,-12,-16,
-10,-1,9,6,-9,4,9,-7,-8,-5,-13,-17,
-5,4,9,1,-7,7,9,-7,-8,-5,-12,-17,
-1,7,8,-3,-4,8,9,-6,-7,-3,-11,-16,
-2,6,8,-2,-5,7,9,-5,-6,-2,-10,-14,
-3,5,8,-1,-5,7,10,-4,-6,-2,-10,-14,
-4,5,9,0,-6,7,10,-4,-7,-2,-11,-15,
-1,5,6,-2,-3,6,9,-3,-7,-2,-12,-16,
-2,6,8,-2,-5,7,10,-3,-6,-3,-12,-14,
-9,4,13,3,-11,9,10,-4,-8,-3,-11,-14,
-11,3,14,4,-12,9,10,-4,-9,-4,-13,-15,
-9,5,14,2,-11,10,10,-4,-8,-3,-11,-15,
-8,5,13,2,-10,9,10,-4,-8,-3,-11,-14,
-7,5,12,1,-9,9,8,-7,-9,-3,-12,-15,
-6,4,10,1,-8,7,7,-9,-11,-4,-12,-16,
-9,4,13,3,-11,9,7,-8,-9,-4,-11,-15,
-11,3,14,4,-12,9,8,-7,-8,-3,-9,-11,
-9,3,12,3,-10,8,6,-7,-8,-4,-11,-13,
-6,3,9,2,-7,6,6,-7,-9,-5,-11,-16,
-4,4,8,0,-6,6,5,-7,-8,-5,-11,-14,
-4,5,9,0,-6,7,4,-8,-9,-6,-12,-15,
-9,2,11,4,-10,7,4,-9,-11,-8,-13,-16,
-12,-1,11,7,-11,5,4,-10,-10,-7,-12,-15,
-12,0,12,6,-12,6,5,-10,-10,-6,-12,-16,
-11,2,13,5,-12,8,6,-10,-11,-6,-12,-16,
-10,4,14,3,-12,9,6,-10,-12,-8,-13,-16,
-8,5,13,2,-10,9,5,-12,-13,-8,-14,-16,
-6,5,11,1,-8,8,5,-13,-14,-10,-15,-17,
-9,3,12,3,-10,8,5,-12,-13,-9,-17,-17,
-10,4,14,3,-12,9,5,-11,-12,-9,-15,-15,
-10,5,15,3,-12,10,5,-12,-12,-8,-14,-15,
-7,5,12,1,-9,9,3,-13,-13,-9,-14,-15,
-7,5,12,1,-9,9,3,-13,-13,-9,-14,-14,
-6,3,9,2,-7,6,4,-12,-14,-9,-14,-15,
-7,2,9,3,-8,6,4,-12,-14,-9,-14,-14,
-6,1,7,3,-6,4,3,-14,-14,-8,-14,-14,
-6,-1,5,4,-5,2,3,-13,-14,-9,-14,-15,
-9,-2,7,6,-8,3,3,-13,-13,-8,-13,-15,
-10,-3,7,7,-8,2,4,-13,-14,-8,-14,-17,
-8,-3,5,6,-6,1,3,-14,-15,-10,-16,-18,
-5,-1,4,3,-4,2,4,-12,-13,-9,-15,-18,
-4,2,6,1,-5,4,6,-11,-12,-7,-13,-17,
-5,2,7,2,-6,5,4,-12,-13,-8,-14,-19,
-7,0,7,4,-7,4,2,-14,-15,-9,-16,-21,
-8,-1,7,5,-7,3,3,-14,-14,-8,-15,-20,
-9,-1,8,5,-8,4,4,-13,-13,-6,-12,-16,
-9,2,11,4,-10,7,5,-14,-13,-6,-12,-15,
-11,2,13,5,-12,8,5,-14,-13,-7,-13,-16,
-10,0,10,5,-10,5,5,-14,-13,-7,-15,-15,
-6,-1,5,4,-5,2,5,-14,-13,-7,-15,-14,
-9,0,9,5,-9,5,6,-13,-12,-6,-13,-14,
-13,-2,11,8,-12,5,6,-12,-12,-6,-12,-14,
-15,-4,11,10,-13,4,5,-13,-13,-6,-12,-15,
-14,-3,11,9,-12,4,4,-13,-14,-7,-12,-15,
-6,-2,4,4,-5,1,2,-14,-15,-8,-13,-14,
0,0,0,0,0,0,2,-14,-14,-7,-12,-13,
-4,1,5,2,-4,3,4,-12,-13,-6,-10,-12,
-8,1,9,4,-8,5,5,-12,-13,-6,-11,-13,
-8,3,11,3,-9,7,5,-14,-14,-8,-13,-15,
-10,0,10,5,-10,5,5,-14,-15,-8,-13,-17,
-11,-3,8,7,-9,3,5,-15,-16,-9,-12,-16,
-11,-3,8,7,-9,3,5,-16,-15,-8,-12,-15,
-11,-1,10,6,-10,5,6,-14,-15,-6,-12,-13,
-11,-4,7,8,-9,2,4,-16,-15,-7,-13,-14,
-10,-7,3,9,-6,-2,1,-17,-16,-7,-15,-16,
-9,-4,5,7,-7,1,2,-17,-15,-8,-15,-17,
-9,-4,5,7,-7,1,3,-15,-15,-8,-14,-16,
-10,-4,6,7,-8,1,4,-13,-14,-8,-14,-16,
-11,-3,8,7,-9,3,5,-13,-13,-8,-14,-14,
-12,-2,10,7,-11,4,5,-14,-14,-9,-14,-15,
-11,-2,9,7,-10,4,5,-14,-13,-7,-14,-16,
-9,-1,8,5,-8,4,5,-14,-13,-6,-12,-15,
-9,1,10,4,-9,6,5,-14,-13,-5,-11,-13,
-9,2,11,4,-10,7,5,-16,-13,-5,-11,-15,
-11,1,12,5,-11,7,5,-16,-14,-6,-13,-17,
-10,1,11,5,-10,6,5,-15,-11,-5,-12,-15,
-7,0,7,4,-7,4,5,-14,-11,-4,-11,-15,
-6,-1,5,4,-5,2,4,-14,-14,-4,-11,-16,
-9,-4,5,7,-7,1,3,-17,-16,-7,-13,-17,
-10,-4,6,7,-8,1,3,-17,-15,-8,-14,-16,
-11,-5,6,8,-8,1,4,-17,-15,-8,-13,-17,
-10,-7,3,9,-6,-2,3,-17,-16,-8,-15,-18,
-6,-6,0,6,-3,-3,3,-16,-14,-7,-14,-17,
-5,-6,-1,6,-2,-3,4,-16,-14,-7,-11,-16,
-6,-6,0,6,-3,-3,5,-15,-13,-6,-11,-16,
-6,-6,0,6,-3,-3,5,-15,-14,-7,-12,-17,
-9,-6,3,8,-6,-1,5,-14,-14,-6,-11,-15,
-11,-4,7,8,-9,2,6,-15,-14,-5,-11,-15,
-8,-3,5,6,-6,1,5,-14,-14,-6,-12,-15,
-6,-2,4,4,-5,1,6,-13,-12,-5,-11,-15,
-4,0,4,2,-4,2,6,-13,-12,-5,-11,-15,
-4,0,4,2,-4,2,6,-13,-12,-5,-11,-14,
-4,-2,2,3,-3,0,4,-15,-14,-6,-13,-15,
-9,-5,4,7,-6,0,4,-15,-14,-6,-14,-15,
-10,-7,3,9,-6,-2,4,-15,-14,-7,-15,-16,
-7,-6,1,7,-4,-2,2,-17,-16,-9,-16,-18,
-6,-6,0,6,-3,-3,2,-17,-16,-10,-17,-19,
-12,-8,4,10,-8,-2,4,-15,-15,-7,-14,-17,
-14,-8,6,11,-10,-1,5,-15,-13,-5,-13,-16,
-11,-7,4,9,-7,-1,3,-17,-15,-7,-14,-18,
-9,-7,2,8,-5,-2,2,-19,-17,-9,-15,-19,
-12,-9,3,11,-7,-3,3,-18,-15,-8,-14,-18,
-16,-9,7,13,-11,-1,4,-16,-15,-7,-14,-16,
-11,-3,8,7,-9,3,4,-15,-15,-7,-15,-17,
-5,-1,4,3,-4,2,3,-16,-16,-8,-16,-18,
-4,-3,1,4,-2,-1,3,-17,-16,-6,-14,-18,
-3,-4,-1,4,-1,-2,3,-16,-14,-4,-11,-16,
-4,-3,1,4,-2,-1,3,-14,-13,-4,-11,-13,
-10,-7,3,9,-6,-2,3,-15,-15,-6,-12,-15,
-13,-9,4,11,-8,-2,4,-14,-16,-7,-13,-16,
-16,-10,6,13,-11,-2,3,-15,-17,-8,-13,-17,
-16,-10,6,13,-11,-2,3,-16,-16,-8,-13,-16,
-11,-9,2,10,-6,-3,3,-15,-16,-7,-13,-16,
-9,-8,1,9,-5,-3,4,-15,-16,-6,-13,-17,
-9,-8,1,9,-5,-3,2,-17,-17,-7,-14,-17,
-10,-8,2,9,-6,-3,1,-19,-19,-7,-15,-18,
-10,-6,4,8,-7,-1,2,-18,-17,-7,-13,-18,
-10,-4,6,7,-8,1,1,-18,-16,-6,-12,-17,
-9,-4,5,7,-7,1,1,-18,-16,-5,-11,-16,
-10,-6,4,8,-7,-1,1,-18,-17,-5,-12,-17,
-12,-6,6,9,-9,0,1,-18,-17,-6,-13,-18,
-9,-3,6,6,-7,2,1,-18,-17,-5,-12,-17,
-8,0,8,4,-8,4,1,-18,-17,-6,-13,-17,
-8,-2,6,5,-7,2,1,-18,-17,-8,-14,-17,
-8,-5,3,7,-5,-1,1,-18,-17,-8,-14,-16,
-9,-2,7,6,-8,3,2,-17,-15,-8,-13,-15,
-11,-3,8,7,-9,3,4,-15,-15,-7,-13,-15,
-16,-7,9,12,-12,1,4,-15,-15,-7,-12,-14,
-14,-6,8,10,-11,1,4,-16,-14,-7,-12,-14,
-9,-5,4,7,-6,0,4,-16,-14,-7,-12,-15,
-8,-4,4,6,-6,0,4,-16,-14,-6,-12,-15,
-7,-4,3,6,-5,0,5,-15,-14,-6,-13,-16,
-7,-4,3,6,-5,0,5,-14,-13,-5,-11,-14,
-9,-1,8,5,-8,4,6,-14,-12,-4,-10,-13,
-11,0,11,6,-11,6,7,-14,-12,-3,-9,-13,
-12,0,12,6,-12,6,7,-14,-12,-2,-9,-13,
-11,1,12,5,-11,7,7,-14,-12,-2,-9,-13,
-7,4,11,2,-9,8,7,-14,-11,-2,-10,-13,
-7,5,12,1,-9,9,6,-13,-11,-3,-10,-13,
-7,6,13,1,-10,10,8,-11,-9,-1,-9,-12,
-7,4,11,2,-9,8,9,-10,-8,0,-10,-14,
-7,4,11,2,-9,8,9,-9,-8,-1,-11,-15,
-4,3,7,1,-5,5,8,-9,-8,-1,-12,-16,
0,1,1,0,0,1,8,-8,-8,-3,-13,-16,
-3,1,4,1,-3,3,10,-7,-7,-1,-11,-14,
-7,4,11,2,-9,8,11,-7,-6,0,-11,-14,
-6,5,11,1,-8,8,10,-8,-7,0,-11,-14,
-6,0,6,3,-6,3,10,-7,-7,0,-11,-13,
-6,0,6,3,-6,3,10,-6,-5,1,-10,-12,
-7,1,8,3,-7,5,11,-4,-4,4,-7,-10,
-7,3,10,2,-8,7,10,-5,-4,3,-7,-9,
-6,3,9,2,-7,6,8,-6,-4,2,-6,-9,
-5,3,8,1,-6,6,5,-7,-4,1,-6,-8,
-3,4,7,0,-5,6,3,-8,-4,1,-6,-7,
-2,5,7,-1,-4,6,1,-9,-6,0,-6,-8,
-2,8,10,-3,-6,9,0,-12,-6,0,-6,-7,
-4,7,11,-1,-7,9,-1,-14,-7,0,-6,-7,
-3,8,11,-2,-7,10,-2,-16,-7,0,-5,-7,
2,13,11,-7,-4,12,-4,-16,-8,-2,-5,-8,
6,16,10,-11,-2,13,-5,-17,-8,-3,-7,-10,
4,15,11,-9,-3,13,-7,-19,-10,-4,-6,-10,
3,13,10,-8,-3,12,-7,-20,-12,-4,-7,-8,
3,11,8,-7,-2,10,-8,-20,-14,-6,-9,-10,
3,13,10,-8,-3,12,-8,-19,-13,-4,-9,-10,
4,14,10,-9,-3,12,-6,-15,-12,-3,-8,-10,
4,12,8,-8,-2,10,-7,-15,-13,-3,-8,-11,
2,11,9,-6,-3,10,-7,-15,-11,-3,-6,-10,
0,9,9,-4,-4,9,-4,-13,-7,0,-5,-7,
2,7,5,-4,-1,6,-2,-12,-7,0,-5,-7,
6,8,2,-7,2,5,-2,-12,-8,-1,-6,-7,
6,8,2,-7,2,5,0,-12,-8,-1,-5,-7,
1,6,5,-3,-2,6,1,-10,-7,0,-5,-6,
0,5,5,-2,-2,5,0,-10,-7,0,-5,-7,
0,7,7,-3,-3,7,0,-10,-6,0,-5,-8,
-1,5,6,-2,-3,6,0,-10,-6,0,-5,-9,
-4,3,7,1,-5,5,-1,-12,-7,-1,-6,-10,
-3,3,6,0,-4,5,-3,-13,-9,-2,-6,-11,
1,4,3,-2,-1,4,-4,-15,-10,-2,-6,-9,
2,4,2,-3,0,3,-3,-15,-10,-1,-6,-9,
1,5,4,-3,-1,5,-2,-15,-11,-2,-7,-9,
-2,4,6,-1,-4,5,-2,-15,-11,-4,-9,-10,
-6,1,7,3,-6,4,-3,-17,-13,-5,-10,-12,
-8,-1,7,5,-7,3,-4,-17,-14,-5,-10,-14,
-11,-3,8,7,-9,3,-4,-18,-15,-6,-10,-15,
-13,-5,8,9,-10,2,-5,-20,-17,-9,-12,-15,
-11,-2,9,7,-10,4,-5,-20,-17,-10,-12,-16,
-10,-2,8,6,-9,3,-6,-21,-18,-12,-14,-17,
-12,-4,8,8,-10,2,-5,-20,-18,-14,-15,-17,
-14,-5,9,10,-11,2,-5,-20,-19,-16,-16,-18,
-15,-9,6,12,-10,-1,-4,-22,-20,-17,-16,-19,
-15,-11,4,13,-9,-3,-3,-21,-20,-15,-16,-18,
-13,-9,4,11,-8,-2,-3,-21,-20,-14,-17,-18,
-13,-8,5,11,-9,-1,-4,-22,-21,-14,-18,-18,
-15,-7,8,11,-11,1,-5,-22,-20,-13,-18,-18,
-13,-7,6,10,-9,0,-5,-21,-20,-11,-17,-17,
-10,-7,3,9,-6,-2,-4,-21,-20,-11,-17,-18,
-13,-7,6,10,-9,0,-2,-18,-19,-10,-17,-18,
-16,-8,8,12,-12,0,-2,-17,-18,-10,-18,-18,
-16,-8,8,12,-12,0,-2,-16,-19,-11,-18,-18,
-13,-10,3,12,-8,-3,-2,-16,-19,-12,-20,-21,
-11,-11,0,11,-5,-5,0,-12,-17,-12,-21,-23,
-10,-9,1,10,-5,-4,5,-5,-12,-11,-21,-24,
-11,-10,1,11,-6,-4,10,4,-8,-9,-21,-26,
-7,-11,-4,9,-1,-7,17,16,-2,-6,-20,-25,
0,-11,-11,6,6,-11,25,33,6,-2,-17,-22,
4,-12,-16,4,10,-14,34,52,20,5,-14,-22,
4,-11,-15,4,10,-13,44,69,36,16,-11,-19,
6,-6,-12,0,9,-9,52,81,54,32,-2,-11,
16,1,-15,-8,16,-7,56,89,76,51,8,-3,
24,8,-16,-16,20,-4,57,96,100,73,22,4,
31,16,-15,-23,23,1,56,100,124,98,40,15,
39,29,-10,-34,25,10,43,97,147,125,62,30,
53,47,-6,-50,30,21,21,84,164,151,86,48,
69,65,-4,-67,37,31,-4,70,179,175,112,68,
87,86,-1,-86,44,43,-39,51,195,202,140,89,
109,111,2,-110,54,57,-81,23,211,231,171,115,
128,136,8,-132,60,72,-124,-11,223,261,203,143,
146,158,12,-152,67,85,-167,-51,229,284,229,166,
163,175,12,-169,76,94,-206,-93,227,300,249,187,
172,183,11,-177,81,97,-244,-139,219,310,266,205,
174,187,13,-180,81,100,-280,-186,205,313,278,217,
173,192,19,-182,77,106,-314,-230,188,312,288,228,
171,201,30,-186,71,116,-340,-268,167,309,297,238,
165,202,37,-183,64,120,-354,-292,142,294,296,239,
155,194,39,-174,58,117,-357,-305,113,271,286,233,
144,184,40,-164,52,112,-346,-297,89,245,270,223,
132,169,37,-150,48,103,-318,-271,69,205,235,202,
109,142,33,-125,38,88,-282,-241,42,148,184,168,
80,108,28,-94,26,68,-248,-222,6,86,129,129,
56,80,24,-68,16,52,-212,-205,-23,34,79,92,
40,60,20,-50,10,40,-175,-182,-36,6,49,65,
27,47,20,-37,4,34,-138,-155,-39,-5,31,46,
19,37,18,-28,1,28,-105,-130,-41,-10,19,29,
15,27,12,-21,2,20,-76,-104,-41,-12,10,16,
10,19,9,-14,1,14,-56,-79,-38,-11,5,7,
4,14,10,-9,-3,12,-42,-57,-36,-10,2,2,
0,11,11,-5,-5,11,-32,-39,-30,-10,1,0,
-6,8,14,-1,-10,11,-25,-28,-26,-9,-1,0,
-10,5,15,3,-12,10,-21,-24,-21,-10,-5,-2,
-12,0,12,6,-12,6,-16,-22,-15,-10,-10,-5,
-14,-4,10,9,-12,3,-9,-20,-7,-7,-13,-8,
-13,-4,9,9,-11,3,0,-16,0,-2,-12,-10,
-12,-3,9,8,-10,3,7,-11,4,0,-12,-12,
-12,-4,8,8,-10,2,10,-8,2,-1,-14,-16,
-10,-6,4,8,-7,-1,9,-4,-3,-3,-17,-18,
-8,-4,4,6,-6,0,8,-2,-9,-5,-16,-18,
-10,-2,8,6,-9,3,8,0,-12,-6,-15,-18,
-13,-2,11,8,-12,5,9,0,-13,-6,-13,-13,
-13,-1,12,7,-12,6,8,-1,-13,-8,-14,-14,
-10,-2,8,6,-9,3,9,-2,-12,-11,-19,-18,
-11,-4,7,8,-9,2,11,-2,-10,-13,-21,-20,
-15,-6,9,11,-12,2,12,-2,-9,-15,-22,-21,
-17,-5,12,11,-14,4,16,0,-8,-13,-21,-19,
-16,-5,11,11,-13,3,18,2,-8,-13,-20,-19,
-14,-4,10,9,-12,3,17,2,-10,-15,-21,-21,
-12,-2,10,7,-11,4,16,2,-12,-16,-22,-22,
-12,-2,10,7,-11,4,17,3,-12,-15,-21,-21,
-14,-4,10,9,-12,3,18,3,-11,-14,-21,-21,
-16,-6,10,11,-13,2,18,3,-12,-14,-22,-22,
-16,-8,8,12,-12,0,19,3,-12,-14,-24,-23,
-13,-9,4,11,-8,-2,19,4,-11,-14,-23,-22,
-14,-10,4,12,-9,-3,19,4,-11,-13,-24,-22,
-16,-8,8,12,-12,0,19,4,-11,-14,-24,-23,
-21,-11,10,16,-15,0,19,5,-11,-15,-23,-23,
-24,-13,11,19,-17,-1,20,6,-10,-15,-22,-24,
-24,-11,13,18,-18,1,20,7,-9,-14,-22,-24,
-19,-9,10,14,-14,1,18,7,-9,-14,-21,-24,
-17,-9,8,13,-12,0,18,7,-9,-14,-21,-25,
-16,-9,7,13,-11,-1,20,9,-8,-13,-21,-27,
-13,-5,8,9,-10,2,21,10,-8,-11,-20,-24,
-15,-8,7,12,-11,0,19,7,-10,-14,-22,-26,
-16,-11,5,14,-10,-3,18,6,-11,-15,-24,-28,
-18,-10,8,14,-13,-1,19,8,-9,-13,-22,-26,
-16,-9,7,13,-11,-1,19,9,-8,-13,-22,-25,
-15,-9,6,12,-10,-1,20,9,-7,-12,-22,-25,
-15,-11,4,13,-9,-3,21,10,-8,-11,-23,-27,
-16,-13,3,15,-9,-5,22,10,-7,-11,-22,-27,
-16,-10,6,13,-11,-2,23,12,-7,-10,-22,-24,
-16,-8,8,12,-12,0,22,13,-7,-11,-23,-23,
-16,-7,9,12,-12,1,22,12,-7,-13,-24,-25,
-18,-7,11,13,-14,2,23,12,-7,-13,-24,-25,
-18,-6,12,12,-15,3,23,13,-5,-13,-23,-24,
-16,-7,9,12,-12,1,22,14,-6,-15,-24,-27,
-18,-9,9,14,-13,0,23,14,-5,-15,-25,-29,
-16,-10,6,13,-11,-2,24,15,-4,-14,-24,-28,
-13,-9,4,11,-8,-2,24,16,-3,-13,-23,-27,
-14,-9,5,12,-9,-2,24,16,-4,-13,-24,-27,
-16,-9,7,13,-11,-1,25,17,-5,-13,-24,-26,
-16,-8,8,12,-12,0,26,18,-4,-12,-23,-24,
-15,-6,9,11,-12,2,28,21,-2,-10,-20,-22,
-13,-5,8,9,-10,2,28,23,-1,-9,-18,-20,
-12,-7,5,10,-8,-1,28,23,0,-8,-16,-20,
-12,-6,6,9,-9,0,28,23,0,-9,-16,-21,
-13,-5,8,9,-10,2,27,23,1,-10,-17,-21,
-13,-5,8,9,-10,2,27,24,1,-10,-17,-19,
-12,-6,6,9,-9,0,29,26,3,-9,-15,-18,
-13,-6,7,10,-10,1,31,27,3,-7,-15,-18,
-14,-7,7,11,-10,0,29,27,1,-8,-16,-20,
-12,-5,7,9,-9,1,29,27,1,-9,-17,-21,
-12,-1,11,7,-11,5,31,30,3,-8,-15,-20,
-11,-2,9,7,-10,4,31,32,4,-8,-14,-20,
-7,-3,4,5,-5,1,29,30,2,-8,-14,-21,
-9,-6,3,8,-6,-1,27,30,2,-8,-16,-22,
-8,-8,0,8,-4,-4,27,30,2,-6,-17,-21,
-8,-7,1,8,-4,-3,28,32,4,-6,-16,-20,
-7,-3,4,5,-5,1,29,35,5,-4,-16,-21,
-3,1,4,1,-3,3,31,37,8,-2,-13,-20,
-1,0,1,1,-1,1,30,38,9,-2,-13,-20,
-5,-5,0,5,-2,-2,30,38,9,-4,-14,-22,
-5,-1,4,3,-4,2,30,39,9,-5,-13,-21,
-2,1,3,1,-2,2,31,40,10,-5,-13,-21,
-2,0,2,1,-2,1,32,42,12,-4,-13,-21,
-5,3,8,1,-6,6,34,43,14,-3,-13,-21,
-5,3,8,1,-6,6,36,46,16,-2,-13,-21,
-2,4,6,-1,-4,5,36,45,15,-2,-14,-21,
-3,4,7,0,-5,6,36,47,14,-2,-12,-20,
-6,3,9,2,-7,6,36,48,14,-2,-12,-19,
-6,2,8,2,-7,5,36,48,14,-4,-14,-21,
-5,2,7,2,-6,5,37,50,16,-2,-15,-20,
-7,2,9,3,-8,6,37,51,17,0,-14,-19,
-7,2,9,3,-8,6,38,54,19,0,-13,-18,
-7,2,9,3,-8,6,40,57,21,2,-12,-16,
0,4,4,-2,-2,4,39,58,21,2,-13,-16,
7,7,0,-7,4,4,39,59,21,2,-12,-16,
4,4,0,-4,2,2,40,62,23,4,-10,-16,
0,2,2,-1,-1,2,41,64,25,5,-9,-17,
0,6,6,-3,-3,6,41,66,27,5,-9,-17,
3,12,9,-7,-3,11,41,68,28,5,-9,-17,
5,15,10,-10,-2,13,41,70,29,7,-8,-16,
4,13,9,-8,-2,11,41,72,31,9,-7,-14,
1,10,9,-5,-4,10,42,73,32,9,-7,-14,
1,7,6,-4,-2,7,42,74,33,8,-10,-16,
1,5,4,-3,-1,5,42,75,34,8,-11,-18,
0,2,2,-1,-1,2,44,78,37,8,-10,-18,
0,3,3,-1,-1,3,45,81,40,12,-9,-17,
3,6,3,-4,0,5,45,83,41,13,-9,-16,
4,6,2,-5,1,4,45,84,41,13,-9,-17,
0,3,3,-1,-1,3,46,88,44,16,-6,-14,
-2,2,4,0,-3,3,46,91,46,17,-4,-13,
0,5,5,-2,-2,5,46,92,48,17,-5,-14,
1,6,5,-3,-2,6,46,95,51,18,-5,-14,
1,6,5,-3,-2,6,49,98,54,21,-1,-12,
4,8,4,-6,0,6,47,99,54,22,-1,-13,
14,12,-2,-13,8,5,48,101,57,24,0,-11,
15,17,2,-16,7,10,51,106,61,27,2,-7,
12,15,3,-13,5,9,52,108,64,28,3,-7,
11,12,1,-11,5,7,50,110,65,29,3,-9,
11,11,0,-11,6,6,50,111,68,30,3,-8,
13,15,2,-14,6,9,50,114,69,31,4,-7,
16,19,3,-17,7,11,51,116,71,34,6,-6,
14,20,6,-17,4,13,51,116,73,36,8,-4,
13,20,7,-16,3,14,51,116,74,38,10,-2,
14,20,6,-17,4,13,51,119,76,39,11,-2,
15,16,1,-15,7,9,52,121,78,41,12,-1,
16,15,-1,-15,9,7,50,121,80,42,12,-2,
14,13,-1,-13,8,6,49,121,80,41,11,-2,
13,13,0,-13,7,7,49,121,83,43,12,-1,
15,15,0,-15,8,8,48,121,84,44,13,0,
17,16,-1,-16,9,8,47,121,84,44,13,0,
18,20,2,-19,8,11,48,123,87,46,16,4,
20,24,4,-22,8,14,48,125,89,48,19,6,
21,26,5,-23,8,16,46,123,90,47,20,5,
19,24,5,-21,7,15,43,121,90,46,20,5,
19,22,3,-20,8,13,43,121,90,46,20,5,
21,23,2,-22,10,13,42,120,89,48,20,6,
18,23,5,-20,7,14,42,118,89,48,20,6,
16,23,7,-19,5,15,42,117,89,50,21,6,
14,21,7,-17,4,14,41,115,90,51,22,7,
14,22,8,-18,3,15,39,111,89,49,22,7,
17,27,10,-22,4,19,37,108,88,49,22,7,
14,27,13,-20,1,20,37,105,86,50,22,7,
13,25,12,-19,1,19,35,103,83,49,22,7,
11,25,14,-18,-1,20,32,98,80,46,21,7,
14,26,12,-20,1,19,30,93,77,46,21,7,
16,26,10,-21,3,18,29,88,76,46,20,7,
16,26,10,-21,3,18,28,83,74,46,20,7,
15,26,11,-20,2,19,28,78,72,45,19,8,
14,26,12,-20,1,19,26,72,66,42,16,5,
12,25,13,-18,0,19,24,65,61,39,14,3,
10,20,10,-15,0,15,21,59,55,36,12,0,
7,18,11,-12,-2,15,19,56,50,33,12,1,
4,19,15,-11,-5,17,19,52,46,31,12,1,
8,21,13,-14,-2,17,20,51,44,30,12,1,
11,19,8,-15,2,14,21,47,42,29,13,1,
10,19,9,-14,1,14,21,42,41,29,14,1,
8,20,12,-14,-2,16,19,37,38,26,12,0,
6,21,15,-13,-4,18,18,32,33,24,11,0,
2,18,16,-10,-7,17,18,28,29,24,11,-2,
1,18,17,-9,-8,18,17,25,25,22,8,-4,
4,18,14,-11,-5,16,15,23,20,19,7,-4,
6,20,14,-13,-4,17,14,20,16,16,7,-4,
5,19,14,-12,-4,17,12,18,12,14,5,-6,
4,17,13,-10,-4,15,11,13,9,12,3,-7,
1,14,13,-7,-6,14,9,10,7,10,3,-9,
-3,11,14,-4,-8,13,9,9,7,9,2,-8,
-1,9,10,-4,-5,10,10,8,5,7,0,-8,
0,7,7,-3,-3,7,9,3,3,3,-1,-8,
-1,7,8,-3,-4,8,9,3,1,1,-1,-7,
-2,8,10,-3,-6,9,10,1,1,1,-1,-8,
0,10,10,-5,-5,10,10,0,0,1,-1,-8,
0,8,8,-4,-4,8,10,-1,-2,-1,-4,-11,
-4,6,10,-1,-7,8,9,-3,-5,-4,-6,-13,
-9,4,13,3,-11,9,8,-4,-7,-5,-7,-13,
-8,1,9,4,-8,5,8,-4,-9,-7,-8,-13,
-6,1,7,3,-6,4,8,-6,-10,-6,-10,-13,
-7,3,10,2,-8,7,7,-5,-10,-6,-10,-14,
-7,4,11,2,-9,8,7,-5,-10,-6,-9,-13,
-11,1,12,5,-11,7,7,-6,-11,-6,-9,-13,
-10,1,11,5,-10,6,7,-8,-12,-7,-10,-15,
-6,0,6,3,-6,3,6,-9,-12,-8,-10,-16,
-7,0,7,4,-7,4,6,-9,-12,-8,-10,-15,
-10,-1,9,6,-9,4,7,-9,-11,-8,-10,-14,
-13,-2,11,8,-12,5,8,-9,-11,-7,-9,-13,
-11,0,11,6,-11,6,6,-10,-13,-8,-9,-14,
-10,0,10,5,-10,5,5,-11,-16,-9,-10,-13,
-11,-2,9,7,-10,4,5,-10,-15,-9,-10,-12,
-10,-2,8,6,-9,3,5,-10,-14,-8,-10,-12,
-8,-1,7,5,-7,3,3,-12,-16,-9,-11,-14,
-8,0,8,4,-8,4,3,-12,-16,-11,-12,-14,
-9,-1,8,5,-8,4,5,-11,-16,-11,-11,-13,
-9,0,9,5,-9,5,3,-12,-17,-12,-10,-14,
-7,2,9,3,-8,6,4,-11,-15,-10,-8,-13,
-8,1,9,4,-8,5,6,-11,-15,-10,-8,-13,
-8,3,11,3,-9,7,6,-11,-15,-10,-9,-14,
-8,8,16,0,-12,12,6,-11,-14,-9,-8,-14,
-10,5,15,3,-12,10,5,-11,-15,-10,-9,-15,
-8,2,10,3,-9,6,4,-12,-17,-12,-11,-15,
-6,0,6,3,-6,3,4,-13,-18,-14,-11,-16,
-4,3,7,1,-5,5,4,-12,-16,-14,-12,-15,
-7,2,9,3,-8,6,6,-11,-15,-13,-10,-14,
-5,2,7,2,-6,5,4,-13,-17,-13,-11,-15,
-8,0,8,4,-8,4,4,-13,-17,-13,-11,-16,
-11,-2,9,7,-10,4,4,-13,-16,-13,-12,-16,
-10,-2,8,6,-9,3,5,-13,-16,-12,-12,-15,
-8,2,10,3,-9,6,4,-13,-16,-11,-11,-13,
-7,8,15,0,-11,12,4,-13,-16,-11,-10,-12,
-5,8,13,-1,-9,11,4,-13,-15,-11,-10,-11,
-2,5,7,-1,-4,6,5,-12,-13,-10,-9,-12,
-1,4,5,-1,-3,5,5,-11,-13,-9,-9,-14,
-4,4,8,0,-6,6,5,-10,-13,-9,-8,-12,
-3,5,8,-1,-5,7,5,-9,-13,-9,-9,-10,
-1,8,9,-3,-5,9,6,-9,-14,-10,-9,-10,
0,8,8,-4,-4,8,6,-9,-14,-9,-10,-11,
0,5,5,-2,-2,5,7,-9,-13,-9,-9,-11,
1,4,3,-2,-1,4,7,-9,-13,-9,-9,-11,
0,4,4,-2,-2,4,6,-9,-13,-11,-10,-12,
-2,6,8,-2,-5,7,7,-7,-13,-10,-11,-13,
-2,8,10,-3,-6,9,8,-7,-12,-10,-11,-12,
-3,7,10,-2,-6,9,8,-8,-13,-10,-11,-12,
0,5,5,-2,-2,5,8,-6,-12,-10,-10,-12,
0,5,5,-2,-2,5,10,-5,-9,-9,-7,-11,
1,5,4,-3,-1,5,9,-5,-10,-10,-8,-12,
5,7,2,-6,2,5,8,-8,-12,-12,-12,-14,
1,7,6,-4,-2,7,9,-6,-12,-13,-12,-14,
-2,8,10,-3,-6,9,11,-5,-11,-12,-11,-14,
-1,10,11,-4,-6,11,13,-4,-10,-10,-10,-12,
-1,9,10,-4,-5,10,14,-3,-10,-8,-9,-9,
-2,7,9,-2,-5,8,12,-3,-10,-8,-9,-10,
-5,7,12,-1,-8,10,12,-3,-9,-6,-10,-11,
-4,7,11,-1,-7,9,12,-2,-8,-5,-8,-11,
-1,9,10,-4,-5,10,12,-2,-8,-5,-8,-10,
-1,6,7,-2,-4,7,11,-5,-9,-6,-9,-12,
-2,5,7,-1,-4,6,11,-4,-9,-4,-7,-10,
-1,10,11,-4,-6,11,12,-3,-10,-4,-7,-9,
0,12,12,-6,-6,12,12,-2,-9,-4,-6,-8,
-4,9,13,-2,-8,11,14,-1,-9,-4,-5,-7,
-5,8,13,-1,-9,11,13,-2,-9,-4,-5,-10,
-4,9,13,-2,-8,11,13,-2,-10,-5,-5,-11,
3,11,8,-7,-2,10,13,0,-9,-4,-3,-8,
7,13,6,-10,1,10,15,1,-8,-3,-1,-7,
8,15,7,-11,1,11,13,1,-8,-3,-2,-8,
7,14,7,-10,0,11,13,2,-7,-4,-3,-9,
2,10,8,-6,-3,9,14,2,-7,-4,-5,-10,
1,8,7,-4,-3,8,14,2,-7,-6,-7,-12,
-1,7,8,-3,-4,8,15,2,-6,-6,-9,-13,
-5,3,8,1,-6,6,14,2,-7,-7,-10,-15,
-6,4,10,1,-8,7,14,2,-6,-8,-10,-17,
-5,5,10,0,-7,8,15,2,-7,-7,-10,-17,
-2,6,8,-2,-5,7,15,2,-7,-7,-10,-16,
-1,7,8,-3,-4,8,17,3,-6,-6,-8,-15,
5,10,5,-7,0,8,18,3,-6,-6,-8,-13,
11,8,-3,-9,7,3,16,2,-7,-6,-12,-15,
8,6,-2,-7,5,2,17,2,-7,-5,-12,-16,
0,7,7,-3,-3,7,18,4,-4,-2,-8,-13,
-3,11,14,-4,-8,13,19,6,-3,-1,-6,-11,
-2,13,15,-5,-8,14,18,5,-4,-1,-7,-12,
0,12,12,-6,-6,12,18,5,-4,-2,-8,-11,
0,11,11,-5,-5,11,18,4,-4,-2,-9,-11,
0,10,10,-5,-5,10,17,3,-5,-4,-10,-12,
1,8,7,-4,-3,8,16,2,-6,-4,-11,-14,
2,6,4,-4,-1,5,16,2,-6,-6,-12,-15,
0,8,8,-4,-4,8,16,3,-6,-5,-12,-14,
-3,8,11,-2,-7,10,15,2,-6,-5,-12,-13,
-5,9,14,-2,-9,12,14,2,-8,-6,-12,-13,
0,11,11,-5,-5,11,14,1,-9,-6,-11,-13,
6,12,6,-9,0,9,13,1,-8,-5,-11,-15,
4,12,8,-8,-2,10,13,2,-7,-5,-10,-13,
2,12,10,-7,-4,11,14,2,-7,-3,-8,-10,
2,11,9,-6,-3,10,15,2,-7,-3,-6,-9,
0,11,11,-5,-5,11,15,2,-7,-3,-6,-9,
0,12,12,-6,-6,12,13,0,-8,-4,-6,-10,
2,10,8,-6,-3,9,12,-1,-8,-3,-5,-9,
4,11,7,-7,-1,9,11,-3,-10,-5,-7,-11,
4,12,8,-8,-2,10,11,-2,-10,-5,-8,-11,
5,11,6,-8,0,9,11,-2,-11,-5,-8,-11,
4,10,6,-7,-1,8,13,-2,-11,-6,-8,-11,
3,11,8,-7,-2,10,13,-2,-12,-6,-7,-11,
2,11,9,-6,-3,10,12,-5,-13,-7,-8,-11,
0,8,8,-4,-4,8,12,-5,-15,-8,-10,-11,
0,10,10,-5,-5,10,12,-5,-14,-7,-10,-11,
0,13,13,-6,-6,13,13,-4,-12,-6,-8,-10,
2,13,11,-7,-4,12,13,-4,-12,-6,-8,-9,
0,13,13,-6,-6,13,11,-5,-12,-8,-9,-9,
-1,14,15,-6,-8,15,11,-5,-13,-8,-10,-11,
2,16,14,-9,-6,15,10,-5,-14,-8,-11,-13,
4,14,10,-9,-3,12,10,-6,-14,-10,-13,-15,
0,9,9,-4,-4,9,11,-5,-13,-9,-11,-15,
-4,8,12,-2,-8,10,11,-6,-13,-8,-11,-16,
-2,10,12,-4,-7,11,13,-6,-13,-8,-11,-15,
1,11,10,-6,-4,11,11,-7,-14,-9,-13,-17,
0,7,7,-3,-3,7,10,-8,-15,-10,-15,-19,
-2,8,10,-3,-6,9,11,-7,-14,-10,-14,-18,
-2,9,11,-3,-6,10,10,-6,-15,-10,-14,-17,
-4,3,7,1,-5,5,10,-6,-17,-10,-13,-17,
-9,2,11,4,-10,7,11,-7,-17,-9,-13,-16,
-7,3,10,2,-8,7,10,-8,-19,-11,-14,-16,
-2,4,6,-1,-4,5,10,-9,-19,-12,-14,-16,
-1,6,7,-2,-4,7,10,-8,-16,-10,-11,-13,
-4,6,10,-1,-7,8,10,-8,-15,-9,-9,-13,
-1,10,11,-4,-6,11,10,-8,-15,-9,-9,-14,
4,12,8,-8,-2,10,7,-10,-17,-11,-10,-16,
3,12,9,-7,-3,11,7,-11,-17,-11,-11,-15,
0,10,10,-5,-5,10,8,-10,-17,-10,-11,-13,
-1,9,10,-4,-5,10,7,-10,-17,-10,-12,-12,
-2,9,11,-3,-6,10,8,-9,-17,-10,-11,-12,
1,11,10,-6,-4,11,7,-9,-18,-12,-11,-12,
5,13,8,-9,-1,11,7,-9,-18,-11,-11,-12,
5,13,8,-9,-1,11,7,-8,-18,-12,-11,-12,
0,10,10,-5,-5,10,8,-8,-15,-10,-10,-10,
-5,3,8,1,-6,6,7,-9,-15,-12,-11,-12,
-5,5,10,0,-7,8,5,-12,-17,-14,-13,-14,
-5,7,12,-1,-8,10,5,-12,-18,-14,-14,-15,
-7,5,12,1,-9,9,6,-10,-18,-12,-11,-13,
-4,5,9,0,-6,7,7,-8,-17,-11,-10,-11,
-1,5,6,-2,-3,6,7,-8,-17,-11,-9,-11,
1,8,7,-4,-3,8,7,-9,-18,-11,-10,-12,
0,9,9,-4,-4,9,7,-9,-19,-10,-11,-14,
-4,6,10,-1,-7,8,8,-9,-18,-11,-9,-11,
-5,2,7,2,-6,5,7,-10,-19,-11,-10,-11,
-5,2,7,2,-6,5,6,-10,-20,-13,-11,-12,
-5,4,9,1,-7,7,6,-12,-21,-13,-14,-12,
-4,4,8,0,-6,6,6,-12,-21,-13,-13,-12,
-2,4,6,-1,-4,5,7,-11,-20,-13,-13,-14,
-2,5,7,-1,-4,6,7,-10,-20,-14,-13,-14,
-4,5,9,0,-6,7,6,-10,-20,-13,-13,-14,
-5,6,11,0,-8,9,4,-13,-21,-13,-13,-14,
-4,8,12,-2,-8,10,4,-14,-22,-13,-13,-13,
-4,9,13,-2,-8,11,4,-13,-22,-14,-12,-12,
-4,7,11,-1,-7,9,5,-13,-21,-14,-10,-11,
-4,7,11,-1,-7,9,6,-12,-21,-13,-9,-10,
-4,7,11,-1,-7,9,6,-12,-20,-13,-8,-12,
-4,7,11,-1,-7,9,5,-13,-21,-15,-9,-13,
-4,7,11,-1,-7,9,3,-14,-23,-16,-9,-13,
0,7,7,-3,-3,7,3,-15,-23,-16,-9,-14,
2,7,5,-4,-1,6,4,-13,-21,-13,-6,-12,
-1,3,4,-1,-2,4,6,-12,-21,-13,-7,-10,
-4,2,6,1,-5,4,6,-13,-22,-15,-10,-12,
-6,2,8,2,-7,5,5,-15,-24,-17,-12,-14,
-4,5,9,0,-6,7,5,-14,-23,-15,-13,-14,
-1,9,10,-4,-5,10,5,-15,-22,-15,-13,-14,
-2,8,10,-3,-6,9,4,-16,-23,-15,-13,-14,
-1,9,10,-4,-5,10,4,-16,-23,-15,-13,-13,
1,9,8,-5,-3,9,4,-14,-21,-14,-12,-11,
0,7,7,-3,-3,7,6,-13,-20,-14,-12,-10,
0,5,5,-2,-2,5,3,-14,-24,-15,-15,-13,
-3,4,7,0,-5,6,3,-14,-25,-15,-16,-15,
-7,5,12,1,-9,9,6,-13,-23,-13,-15,-15,
-7,5,12,1,-9,9,3,-13,-24,-13,-14,-17,
-5,8,13,-1,-9,11,2,-16,-25,-16,-15,-18,
-1,11,12,-5,-6,12,1,-18,-25,-18,-16,-19,
-3,9,12,-3,-7,11,2,-16,-23,-17,-16,-19,
-7,7,14,0,-10,11,4,-16,-23,-16,-15,-19,
-7,7,14,0,-10,11,3,-16,-23,-16,-15,-18,
-5,6,11,0,-8,9,3,-17,-24,-16,-16,-20,
-8,4,12,2,-10,8,2,-17,-25,-18,-16,-20,
-9,3,12,3,-10,8,2,-16,-26,-18,-15,-19,
-8,3,11,3,-9,7,3,-15,-26,-17,-13,-17,
-6,1,7,3,-6,4,3,-15,-26,-17,-13,-18,
-11,-1,10,6,-10,5,3,-15,-26,-17,-13,-18,
-13,-4,9,9,-11,3,3,-15,-26,-17,-14,-18,
-9,-2,7,6,-8,3,4,-15,-25,-16,-12,-15,
-6,1,7,3,-6,4,3,-14,-25,-17,-12,-14,
-8,2,10,3,-9,6,4,-15,-25,-16,-12,-15,
-10,1,11,5,-10,6,6,-15,-22,-15,-11,-14,
-11,1,12,5,-11,7,6,-16,-22,-15,-11,-14,
-8,4,12,2,-10,8,5,-15,-23,-15,-12,-15,
-4,6,10,-1,-7,8,5,-15,-22,-14,-12,-15,
-4,7,11,-1,-7,9,5,-14,-21,-14,-12,-14,
-10,5,15,3,-12,10,4,-14,-21,-13,-12,-14,
-12,3,15,5,-13,9,4,-14,-22,-13,-13,-14,
-10,3,13,4,-11,8,3,-15,-23,-12,-14,-14,
-8,3,11,3,-9,7,2,-15,-24,-13,-15,-15,
-6,3,9,2,-7,6,2,-16,-25,-15,-16,-16,
-3,4,7,0,-5,6,1,-16,-25,-16,-17,-16,
-1,4,5,-1,-3,5,1,-16,-25,-16,-16,-16,
3,6,3,-4,0,5,2,-16,-25,-18,-17,-17,
1,5,4,-3,-1,5,5,-16,-23,-16,-15,-18,
-7,4,11,2,-9,8,7,-15,-23,-16,-15,-17,
-12,5,17,4,-14,11,6,-15,-24,-16,-16,-18,
-9,5,14,2,-11,10,5,-17,-25,-15,-17,-21,
-6,8,14,-1,-10,11,5,-15,-23,-14,-15,-19,
-4,9,13,-2,-8,11,6,-13,-22,-14,-14,-17,
-2,6,8,-2,-5,7,7,-11,-20,-13,-13,-16,
-1,6,7,-2,-4,7,7,-11,-20,-13,-13,-15,
-2,10,12,-4,-7,11,8,-10,-20,-13,-13,-14,
-4,11,15,-3,-9,13,8,-11,-20,-13,-12,-14,
-1,13,14,-6,-7,14,8,-10,-20,-13,-10,-12,
4,15,11,-9,-3,13,6,-10,-19,-13,-9,-11,
4,15,11,-9,-3,13,7,-10,-19,-13,-7,-10,
3,13,10,-8,-3,12,10,-9,-18,-11,-6,-9,
3,11,8,-7,-2,10,12,-8,-18,-10,-5,-9,
0,11,11,-5,-5,11,12,-8,-18,-11,-5,-9,
-2,13,15,-5,-8,14,10,-9,-18,-12,-6,-12,
0,15,15,-7,-7,15,9,-9,-19,-10,-7,-13,
0,15,15,-7,-7,15,10,-6,-15,-8,-5,-12,
0,14,14,-7,-7,14,14,-3,-13,-7,-6,-12,
-2,12,14,-5,-8,13,15,-3,-14,-10,-8,-14,
-4,13,17,-4,-10,15,14,-3,-13,-10,-9,-14,
-4,12,16,-4,-10,14,14,-4,-14,-10,-9,-14,
0,14,14,-7,-7,14,13,-4,-13,-8,-6,-11,
4,16,12,-10,-4,14,11,-4,-12,-6,-4,-10,
4,14,10,-9,-3,12,10,-4,-12,-5,-5,-11,
2,16,14,-9,-6,15,9,-5,-12,-5,-4,-9,
4,22,18,-13,-7,20,9,-5,-12,-4,-2,-6,
5,23,18,-14,-6,21,7,-5,-12,-4,-2,-6,
5,23,18,-14,-6,21,5,-6,-15,-6,-3,-6,
6,26,20,-16,-7,23,3,-7,-15,-6,-2,-4,
6,25,19,-15,-6,22,2,-9,-17,-5,-1,-4,
7,24,17,-15,-5,21,0,-10,-18,-7,-3,-5,
7,24,17,-15,-5,21,-1,-12,-19,-8,-3,-7,
4,23,19,-13,-7,21,-2,-14,-20,-9,-4,-7,
5,21,16,-13,-5,19,-3,-15,-20,-9,-4,-8,
5,19,14,-12,-4,17,-4,-15,-20,-9,-6,-9,
8,19,11,-13,-1,15,-6,-16,-22,-10,-7,-10,
8,20,12,-14,-2,16,-5,-14,-21,-11,-8,-10,
4,18,14,-11,-5,16,-4,-12,-20,-11,-5,-9,
3,12,9,-7,-3,11,-3,-12,-22,-12,-6,-9,
4,6,2,-5,1,4,-1,-12,-20,-10,-5,-10,
8,7,-1,-7,5,3,-1,-12,-20,-9,-5,-11,
12,12,0,-12,6,6,-2,-11,-20,-8,-5,-9,
13,14,1,-13,6,8,1,-8,-17,-5,-3,-7,
9,11,2,-10,4,7,3,-7,-16,-4,-2,-5,
4,12,8,-8,-2,10,3,-8,-16,-4,-1,-7,
3,14,11,-8,-4,13,4,-8,-16,-4,-1,-7,
3,13,10,-8,-3,12,3,-9,-17,-5,-1,-9,
3,13,10,-8,-3,12,3,-10,-18,-6,-3,-11,
2,12,10,-7,-4,11,3,-10,-17,-6,-3,-12,
2,12,10,-7,-4,11,3,-10,-17,-7,-3,-10,
1,9,8,-5,-3,9,2,-11,-18,-9,-3,-10,
0,8,8,-4,-4,8,2,-11,-20,-8,-4,-11,
0,11,11,-5,-5,11,3,-11,-21,-8,-5,-10,
5,14,9,-9,-2,12,3,-13,-23,-9,-5,-11,
8,13,5,-10,2,9,3,-13,-22,-9,-6,-10,
5,7,2,-6,2,5,2,-13,-22,-10,-7,-11,
0,0,0,0,0,0,0,-15,-23,-11,-10,-11,
-3,0,3,2,-3,2,0,-16,-24,-11,-11,-11,
0,3,3,-1,-1,3,-1,-18,-25,-13,-12,-13,
0,3,3,-1,-1,3,0,-17,-24,-13,-12,-14,
0,2,2,-1,-1,2,0,-17,-24,-13,-12,-15,
-2,0,2,1,-2,1,1,-17,-25,-15,-13,-17,
-2,-2,0,2,-1,-1,1,-17,-26,-16,-14,-16,
-3,-3,0,3,-1,-1,1,-18,-27,-17,-16,-17,
-4,-2,2,3,-3,0,1,-18,-29,-19,-18,-18,
-6,-2,4,4,-5,1,0,-19,-29,-21,-19,-19,
-7,-2,5,5,-6,2,0,-18,-29,-20,-19,-19,
-6,-1,5,4,-5,2,0,-18,-28,-19,-19,-19,
-6,1,7,3,-6,4,1,-18,-28,-18,-17,-18,
-7,3,10,2,-8,7,0,-18,-28,-19,-16,-18,
-8,0,8,4,-8,4,1,-17,-27,-20,-15,-17,
-7,-1,6,4,-6,3,2,-15,-26,-19,-16,-18,
-5,-1,4,3,-4,2,3,-14,-25,-18,-15,-18,
-4,1,5,2,-4,3,3,-12,-23,-17,-16,-21,
-8,-1,7,5,-7,3,7,-6,-21,-15,-16,-22,
-9,-5,4,7,-6,0,12,3,-16,-13,-16,-23,
-3,-6,-3,5,0,-4,20,18,-9,-10,-15,-22,
1,-6,-7,3,4,-6,28,36,2,-4,-13,-21,
3,-7,-10,2,7,-8,36,54,17,4,-9,-18,
5,-7,-12,1,9,-9,44,72,35,15,-4,-17,
9,-2,-11,-3,10,-6,50,84,55,30,3,-13,
14,0,-14,-7,14,-7,55,93,77,50,16,-6,
20,3,-17,-11,19,-7,59,101,102,75,33,6,
31,14,-17,-22,24,-1,61,106,127,103,56,24,
49,34,-15,-41,32,10,51,100,147,132,82,45,
67,54,-13,-60,40,21,30,85,162,160,108,65,
80,71,-9,-75,45,31,7,70,178,188,134,85,
95,92,-3,-93,49,45,-23,49,195,219,164,110,
111,118,7,-114,52,63,-63,19,210,252,197,135,
122,147,25,-134,49,86,-106,-18,221,285,230,162,
134,168,34,-151,50,101,-151,-62,224,309,257,183,
147,183,36,-165,56,110,-193,-109,220,326,280,204,
154,195,41,-174,57,118,-230,-157,209,334,297,223,
157,201,44,-179,57,123,-267,-203,194,335,311,239,
